0 1900000 sil
1900000 2400000 K
2400000 2800000 a
2800000 3100000 NH
3100000 3900000 L
3900000 5000000 ee:
5000000 5300000 N
5300000 6200000 D
6200000 6800000 a:
6800000 7900000 S
7900000 8400000 R
8400000 8700000 a
8700000 9000000 H
9000000 9800000 S
9800000 10100000 ?
10100000 11400000 aa:
11400000 11700000 T
11700000 12400000 M
12400000 13200000 uor
13200000 13500000 J
13500000 14100000 PH
14100000 14900000 S
14900000 15700000 e:
15700000 16000000 N
16000000 17100000 T
17100000 18200000 ear:
18200000 23000000 T
23000000 23500000 D
23500000 24000000 ea:
24000000 24300000 L
24300000 25200000 T
25200000 25800000 R
25800000 26100000 oo
26100000 26700000 W
26700000 27600000 B
27600000 28500000 aa:
28500000 28800000 NH
28800000 30000000 K
30000000 30700000 e:
30700000 31600000 S
31600000 32300000 K
32300000 33100000 ia:
33100000 33400000 L
33400000 34600000 TH
34600000 37700000 aa:
37700000 39600000 C
39600000 40400000 ia
40400000 40900000 T
40900000 41700000 a
41700000 42400000 M
42400000 43100000 B
43100000 43600000 a
43600000 44100000 NH
44100000 44800000 B
44800000 45100000 a
45100000 45800000 NH
45800000 46200000 D
46200000 46900000 ou
46900000 47200000 H
47200000 47800000 B
47800000 48200000 a
48200000 48700000 NH
48700000 49100000 D
49100000 50000000 aa:
50000000 50300000 L
50300000 50600000 ?
50600000 50900000 aa
50900000 51200000 ?
51200000 52300000 S
52300000 53100000 a:
53100000 54400000 S
54400000 55000000 aa:
55000000 57500000 H
57500000 58100000 K
58100000 59100000 ix:
59100000 60200000 S
60200000 60900000 R
60900000 61200000 ou
61200000 62100000 K
62100000 63200000 B
63200000 63500000 ek
63500000 65300000 NG
65300000 67800000 NH
67800000 68700000 ek
68700000 69100000 W
69100000 70200000 PH
70200000 71200000 ia
71200000 71500000 ?
71500000 72400000 P
72400000 72800000 ia
72800000 74100000 J
74100000 75000000 ia:
75000000 75400000 P
75400000 76500000 NH
76500000 76800000 e:
76800000 77200000 J
77200000 77900000 P
77900000 78200000 R
78200000 78500000 a:
78500000 79500000 T
79500000 80400000 ee
80400000 80700000 H
80700000 81000000 ?
81000000 81800000 a
81800000 82400000 NG
82400000 82700000 KH
82700000 83300000 L
83300000 84200000 ee
84200000 84700000 H
84700000 86300000 pm
86300000 86700000 sil
