0 2100000 sil
2100000 2600000 KH
2600000 3000000 N
3000000 4000000 u
4000000 5400000 M
5400000 6200000 K
6200000 6500000 a
6500000 7000000 M
7000000 7900000 P
7900000 8200000 u
8200000 9300000 NG
9300000 10600000 CH
10600000 12100000 o:
12100000 12700000 NH
12700000 13200000 ek
13200000 13500000 W
13500000 15100000 C
15100000 15500000 i
15500000 16300000 T
16300000 16700000 P
16700000 17200000 R
17200000 17500000 aa:
17500000 18700000 S
18700000 19700000 aa:
19700000 20200000 T
20200000 21000000 PH
21000000 21500000 NH
21500000 21800000 u
21800000 22900000 M
22900000 23500000 B
23500000 24100000 aa:
24100000 25700000 KH
25700000 27100000 ea:
27100000 27700000 NG
27700000 33500000 D
33500000 34500000 ea:
34500000 34900000 L
34900000 35200000 M
35200000 36400000 ia
36400000 36700000 NH
36700000 37700000 C
37700000 38000000 a
38000000 38400000 M
38400000 39700000 NG
39700000 40000000 ia
40000000 40700000 J
40700000 41400000 P
41400000 41900000 R
41900000 42200000 a:
42200000 43000000 M
43000000 44100000 aa:
44100000 44400000 NH
44400000 45600000 C
45600000 46400000 ia
46400000 47200000 P
47200000 47500000 R
47500000 47800000 aa
47800000 48600000 M
48600000 49200000 B
49200000 49800000 e
49800000 50200000 J
50200000 51100000 K
51100000 52000000 i:
52000000 52500000 L
52500000 53600000 oo
53600000 54300000 M
54300000 55300000 ea:
55300000 56400000 T
56400000 56900000 P
56900000 57700000 i:
57700000 58500000 S
58500000 59500000 P
59500000 60300000 ia
60300000 60700000 NH
60700000 61800000 TH
61800000 62600000 M
62600000 63700000 a:
63700000 64700000 P
64700000 65400000 R
65400000 65900000 eak
65900000 66400000 H
66400000 66700000 R
66700000 67400000 ia
67400000 67700000 C
67700000 68300000 D
68300000 68600000 a
68600000 68900000 M
68900000 69700000 NH
69700000 70600000 aa
70600000 70900000 ?
70900000 71900000 KH
71900000 72600000 ea:
72600000 73000000 T
73000000 74100000 S
74100000 74600000 ear:
74600000 75400000 M
75400000 75800000 R
75800000 76900000 ia
76900000 83700000 P
83700000 84400000 NH
84400000 85000000 ix
85000000 86200000 NG
86200000 86600000 M
86600000 87400000 uor
87400000 87800000 J
87800000 88600000 K
88600000 89200000 i:
89200000 89900000 L
89900000 91200000 oo
91200000 91900000 M
91900000 93200000 ea:
93200000 93500000 T
93500000 94200000 K
94200000 94700000 a
94700000 95400000 NH
95400000 95800000 L
95800000 96400000 aa
96400000 98000000 H
98000000 98400000 P
98400000 99400000 i:
99400000 100100000 P
100100000 100500000 R
100500000 100800000 aa:
100800000 102000000 S
102000000 102900000 aa:
102900000 103200000 T
103200000 103500000 ?
103500000 103800000 a
103800000 104500000 NG
104500000 105400000 K
105400000 106600000 o:
106600000 106900000 W
106900000 108600000 ia:
108600000 109200000 T
109200000 109700000 pm
109700000 111100000 sil
