0 2200000 sil
2200000 2800000 M
2800000 3100000 i
3100000 4100000 NH
4100000 4400000 M
4400000 5400000 ia
5400000 5800000 NH
5800000 6800000 K
6800000 7700000 aa:
7700000 8700000 K
8700000 9100000 i
9100000 9800000 T
9800000 10600000 L
10600000 10900000 u
10900000 11400000 J
11400000 12200000 C
12200000 12800000 ia
12800000 13600000 M
13600000 15000000 aa:
15000000 15300000 L
15300000 16500000 T
16500000 19000000 e:
19000000 22200000 pm
22200000 22700000 K
22700000 23300000 R
23300000 23900000 ia:
23900000 24300000 NH
24300000 25000000 T
25000000 25500000 ea:
25500000 26800000 C
26800000 27900000 aa
27900000 28200000 ?
28200000 28500000 H
28500000 29000000 K
29000000 30800000 aa:
30800000 32200000 H
32200000 32500000 ?
32500000 32800000 ao
32800000 34800000 J
34800000 36900000 P
36900000 37700000 e:
37700000 38000000 N
38000000 38400000 NH
38400000 39000000 ek
39000000 39300000 W
39300000 40600000 P
40600000 41100000 e:
41100000 41400000 L
41400000 42200000 D
42200000 42900000 ea:
42900000 43200000 L
43200000 43900000 NH
43900000 44800000 eak
44800000 45100000 ?
45100000 46300000 J
46300000 47200000 o:
47200000 47700000 K
47700000 48300000 R
48300000 48700000 o
48700000 49600000 T
49600000 49900000 J
49900000 50200000 o
50200000 50800000 NH
50800000 51500000 T
51500000 52600000 R
52600000 53000000 a:
53000000 53300000 L
53300000 53900000 a
53900000 54800000 P
54800000 55100000 M
55100000 55500000 o:
55500000 55800000 ?
55800000 56100000 ?
56100000 57300000 ao
57300000 58000000 J
58000000 58300000 J
58300000 58900000 ek:
58900000 59700000 NG
59700000 60200000 W
60200000 60900000 i
60900000 61800000 N
61800000 65600000 P
65600000 66200000 i:
66200000 67500000 P
67500000 67900000 R
67900000 69000000 uor
69000000 70200000 H
70200000 71000000 W
71000000 72100000 ia
72100000 72800000 M
72800000 73100000 i
73100000 73500000 NH
73500000 74400000 T
74400000 75000000 R
75000000 75300000 oo
75300000 75800000 W
75800000 76600000 B
76600000 77400000 aa:
77400000 77800000 NH
77800000 78900000 K
78900000 79300000 i
79300000 79700000 T
79700000 80300000 B
80300000 80600000 aa
80600000 81000000 N
81000000 82000000 C
82000000 82800000 oo
82800000 83100000 L
83100000 83400000 NH
83400000 83700000 u
83700000 84000000 H
84000000 85500000 T
85500000 87600000 e:
87600000 88600000 pm
88600000 90200000 sil
