0 2100000 sil
2100000 3400000 S
3400000 4100000 oo
4100000 4400000 M
4400000 4700000 ?
4700000 5200000 ao
5200000 5600000 J
5600000 6000000 KH
6000000 6300000 N
6300000 7000000 u
7000000 7600000 M
7600000 8100000 M
8100000 8600000 ek:
8600000 9000000 L
9000000 9600000 B
9600000 9900000 a
9900000 10300000 NH
10300000 11500000 T
11500000 12400000 e
12400000 13600000 C
13600000 22800000 pm
22800000 23500000 C
23500000 24000000 ia
24000000 24900000 TH
24900000 25500000 ia:
25500000 26200000 M
26200000 27400000 D
27400000 29600000 aa:
29600000 29900000 W
29900000 30200000 ia:
30200000 30900000 T
30900000 34200000 TH
34200000 34900000 ou
34900000 36200000 ?
36200000 36500000 aa
36500000 37100000 ?
37100000 38100000 NH
38100000 38400000 u
38400000 39600000 S
39600000 39900000 aa:
39900000 40200000 W
40200000 40600000 aa
40600000 40900000 ?
40900000 41400000 R
41400000 42500000 i:
42500000 42800000 R
42800000 43200000 o:
43200000 43800000 B
43800000 44100000 a
44100000 44400000 H
44400000 44700000 ?
44700000 45100000 a
45100000 45500000 NG
45500000 45800000 KH
45800000 46500000 L
46500000 47600000 ee
47600000 47900000 H
47900000 48400000 M
48400000 49800000 ia
49800000 50600000 NH
50600000 57700000 T
57700000 60500000 ea:
60500000 60800000 B
60800000 61100000 a
61100000 61400000 M
61400000 65800000 P
65800000 66400000 o
66400000 68700000 NG
68700000 69600000 TH
69600000 69900000 NH
69900000 70700000 aa
70700000 71200000 M
71200000 72300000 C
72300000 73800000 o
73800000 76700000 ?
76700000 79100000 ?
79100000 80100000 aa:
80100000 80500000 W
80500000 81800000 PH
81800000 82300000 L
82300000 83700000 ear:
83700000 84400000 NG
84400000 84700000 ?
84700000 85000000 u
85000000 87900000 P
87900000 88200000 aa
88200000 89200000 ?
89200000 90500000 K
90500000 91800000 a:
91800000 92600000 K
92600000 92900000 e
92900000 93300000 J
93300000 93900000 L
93900000 94900000 aa:
94900000 95500000 W
95500000 96400000 ia
96400000 96800000 J
96800000 97600000 K
97600000 98400000 oo
98400000 98800000 NH
98800000 99100000 H
99100000 99500000 K
99500000 100800000 ou:
100800000 102300000 L
102300000 104300000 R
104300000 105000000 ix
105000000 105900000 K
105900000 106500000 a:
106500000 107600000 T
107600000 108100000 eak
108100000 108900000 NG
108900000 109400000 B
109400000 110200000 uor
110200000 110700000 NH
110700000 111200000 T
111200000 111800000 ea:
111800000 112500000 M
112500000 113400000 D
113400000 114800000 a:
114800000 115200000 NG
115200000 116700000 pm
116700000 117900000 sil
