0 2100000 sil
2100000 3100000 NH
3100000 4000000 ek
4000000 4300000 W
4300000 5400000 T
5400000 6400000 i:
6400000 7300000 NH
7300000 8500000 i
8500000 11200000 H
11200000 12000000 NH
12000000 12900000 eak
12900000 13200000 ?
13200000 13500000 ?
13500000 14300000 aa:
14300000 15000000 C
15000000 15500000 C
15500000 16400000 oo
16400000 16700000 L
16700000 17800000 T
17800000 18600000 ek
18600000 19000000 W
19000000 19800000 B
19800000 20600000 aa:
20600000 21200000 NH
21200000 21700000 H
21700000 23400000 ear
23400000 24200000 J
24200000 31300000 pm
31300000 31900000 NH
31900000 32900000 eak
32900000 33200000 ?
33200000 34300000 T
34300000 35000000 R
35000000 35300000 oo
35300000 35800000 W
35800000 36600000 P
36600000 37700000 D
37700000 38900000 a
38900000 39200000 L
39200000 39600000 R
39600000 40100000 o:
40100000 40800000 B
40800000 41800000 a
41800000 42100000 H
42100000 42600000 NH
42600000 43500000 i
43500000 45900000 H
45900000 46300000 ?
46300000 47100000 ao
47100000 47400000 J
47400000 48400000 T
48400000 49100000 ek
49100000 49400000 W
49400000 50300000 S
50300000 50600000 a
50600000 51000000 NH
51000000 52000000 TH
52000000 52900000 aa:
52900000 54200000 K
54200000 56200000 ia
56200000 56900000 NH
56900000 57500000 ek
57500000 57800000 W
57800000 59200000 P
59200000 59600000 e:
59600000 60000000 L
60000000 60900000 T
60900000 61400000 ek
61400000 61800000 W
61800000 62500000 D
62500000 63700000 a
63700000 64600000 L
64600000 71800000 pm
71800000 72100000 H
72100000 73500000 ear
73500000 73900000 J
73900000 74500000 NH
74500000 75700000 i
75700000 76200000 H
76200000 76900000 K
76900000 78000000 ix:
78000000 78700000 C
78700000 79200000 ia
79200000 80500000 PH
80500000 81200000 ea:
81200000 81600000 NH
81600000 82600000 T
82600000 83600000 i:
83600000 84700000 T
84700000 85500000 i:
85500000 86600000 K
86600000 87200000 R
87200000 88100000 ou
88100000 88900000 NG
88900000 96900000 pm
96900000 99000000 S
99000000 100000000 oo
100000000 100600000 M
100600000 100900000 ?
100900000 101700000 ao
101700000 102200000 J
102200000 102500000 M
102500000 103400000 ia
103400000 103700000 NH
103700000 104600000 S
104600000 104900000 a
104900000 105200000 M
105200000 106000000 NH
106000000 106700000 aa:
106700000 107300000 NG
107300000 107600000 L
107600000 107900000 ?
107900000 109900000 a:
109900000 110500000 KH
110500000 111200000 NH
111200000 111500000 ou
111500000 112200000 NG
112200000 112900000 K
112900000 113900000 aa:
113900000 115000000 S
115000000 115400000 NH
115400000 116100000 aa
116100000 116400000 ?
116400000 116900000 NH
116900000 117900000 ek
117900000 118900000 W
118900000 121400000 pm
121400000 121600000 sil
