0 2200000 sil
2200000 3700000 S
3700000 4600000 aa:
4600000 5200000 L
5200000 6400000 aa:
6400000 6700000 R
6700000 8000000 ear:
8000000 8400000 NH
8400000 9400000 T
9400000 9800000 R
9800000 10100000 oo
10100000 10600000 W
10600000 11400000 B
11400000 12200000 aa:
12200000 12800000 NH
12800000 14000000 B
14000000 14300000 e
14300000 15600000 T
15600000 15900000 B
15900000 16400000 R
16400000 17500000 aa
17500000 18200000 M
18200000 19300000 T
19300000 19900000 ek
19900000 20200000 W
20200000 20900000 P
20900000 21400000 R
21400000 21700000 aa
21700000 22300000 M
22300000 22700000 M
22700000 23500000 uor
23500000 23800000 J
23800000 24800000 S
24800000 25300000 aa
25300000 25900000 P
25900000 26200000 B
26200000 27300000 D
27300000 29500000 aa:
29500000 35500000 pm
35500000 36100000 K
36100000 37100000 aa:
37100000 37400000 R
37400000 37800000 i
37800000 38300000 J
38300000 39200000 aa:
39200000 39700000 L
39700000 40400000 aa
40400000 41000000 J
41000000 41400000 R
41400000 41800000 o:
41800000 42500000 B
42500000 42900000 a
42900000 43200000 H
43200000 43600000 R
43600000 43900000 ia:
43900000 44600000 T
44600000 45400000 TH
45400000 46200000 aa:
46200000 46700000 PH
46700000 47500000 i
47500000 48400000 B
48400000 50300000 aa:
50300000 51600000 L
51600000 52800000 NH
52800000 53500000 ek
53500000 53800000 W
53800000 54500000 T
54500000 55100000 ea:
55100000 56200000 B
56200000 56700000 ear
56700000 57400000 K
57400000 57900000 C
57900000 58200000 a
58200000 58600000 M
58600000 59300000 H
59300000 60600000 a:
60600000 60900000 R
60900000 61200000 NH
61200000 61500000 u
61500000 62400000 H
62400000 63100000 T
63100000 72600000 e:
72600000 73700000 P
73700000 74200000 ou
74200000 74500000 NH
74500000 75600000 T
75600000 77000000 ea:
77000000 77900000 B
77900000 78400000 ou
78400000 78800000 K
78800000 79100000 K
79100000 79400000 eak
79400000 79700000 ?
79700000 80300000 L
80300000 80700000 i
80700000 81200000 K
81200000 81800000 R
81800000 82200000 o:
82200000 82800000 B
82800000 83400000 a
83400000 83700000 H
83700000 84600000 P
84600000 85200000 uor
85200000 86000000 K
86000000 87100000 K
87100000 89000000 e:
89000000 90300000 CH
90300000 90800000 o
90800000 91400000 P
91400000 92200000 S
92200000 92500000 a
92500000 93200000 M
93200000 93800000 R
93800000 94600000 aa:
94600000 94900000 ?
94900000 95800000 C
95800000 96200000 ia
96200000 97200000 C
97200000 98000000 R
98000000 98300000 ek:
98300000 98900000 NH
98900000 100100000 TH
100100000 100400000 NG
100400000 101200000 aa
101200000 101600000 J
101600000 102400000 T
102400000 102700000 ek
102700000 103000000 W
103000000 104000000 T
104000000 104900000 aa:
104900000 105900000 M
105900000 106400000 W
106400000 108100000 ee
108100000 108700000 NH
108700000 119500000 pm
119500000 119900000 ?
119900000 120300000 aa:
120300000 121600000 C
121600000 122300000 i:
122300000 123300000 W
123300000 124400000 K
124400000 125200000 aa
125200000 125800000 M
125800000 126600000 K
126600000 126900000 a:
126900000 127700000 D
127700000 128100000 oo
128100000 128900000 C
128900000 129500000 KH
129500000 130300000 NH
130300000 132500000 ia
132500000 132800000 D
132800000 133100000 oo
133100000 136700000 C
136700000 138600000 CH
138600000 139100000 NH
139100000 139400000 e
139400000 139700000 H
139700000 140400000 H
140400000 141800000 ear
141800000 142300000 J
142300000 143300000 K
143300000 144000000 R
144000000 144300000 u
144300000 144900000 M
144900000 145200000 H
145200000 145800000 u
145800000 146700000 NH
146700000 147200000 M
147200000 148000000 uor
148000000 148300000 J
148300000 149100000 C
149100000 149400000 a
149400000 149700000 M
149700000 150200000 NH
150200000 151400000 uor
151400000 151800000 NH
151800000 152700000 T
152700000 153200000 R
153200000 153500000 oo
153500000 154100000 W
154100000 155000000 B
155000000 155800000 aa:
155800000 156100000 NH
156100000 157200000 CH
157200000 157500000 o
157500000 158200000 P
158200000 158800000 S
158800000 159100000 a
159100000 159700000 M
159700000 160400000 R
160400000 161500000 aa:
161500000 161800000 ?
161800000 162300000 M
162300000 162900000 uor
162900000 163200000 J
163200000 164000000 S
164000000 164500000 aa
164500000 165200000 P
165200000 165500000 B
165500000 166600000 D
166600000 168900000 aa:
168900000 169200000 R
169200000 169600000 ix
169600000 171000000 C
171000000 171800000 R
171800000 172100000 ek:
172100000 172500000 NH
172500000 173500000 C
173500000 174000000 ia
174000000 174300000 NG
174300000 175000000 NH
175000000 176200000 i
176200000 176800000 H
176800000 177200000 pm
177200000 178900000 sil
