0 1900000 sil
1900000 2400000 T
2400000 2700000 R
2700000 3000000 ek
3000000 3800000 M
3800000 4900000 T
4900000 5800000 R
5800000 6100000 oo
6100000 7800000 W
7800000 10100000 KH
10100000 10600000 NH
10600000 11300000 ou
11300000 11800000 NG
11800000 12400000 PH
12400000 12900000 ia
12900000 14200000 S
14200000 15200000 aa:
15200000 16000000 J
16000000 17500000 ek:
17500000 17800000 NG
17800000 19300000 S
19300000 20200000 aa:
20200000 21200000 K
21200000 22100000 aa:
22100000 22900000 NH
22900000 24500000 aa:
24500000 25100000 D
25100000 25900000 ea:
25900000 26200000 L
26200000 26800000 M
26800000 27700000 ia
27700000 28000000 NH
28000000 28500000 NH
28500000 29000000 e:
29000000 29400000 J
29400000 30200000 TH
30200000 30800000 aa:
30800000 31900000 T
31900000 32600000 R
32600000 33600000 e
33600000 36600000 J
36600000 37500000 B
37500000 38400000 aa:
38400000 39000000 NH
39000000 39300000 M
39300000 40200000 o:
40200000 40500000 ?
40500000 41100000 P
41100000 41800000 i:
41800000 42800000 K
42800000 44300000 aa:
44300000 44900000 R
44900000 45600000 uor
45600000 46400000 M
46400000 46700000 B
46700000 47000000 aa
47000000 47500000 N
47500000 48700000 C
48700000 49600000 oo
49600000 50000000 L
50000000 50900000 KH
50900000 51600000 NH
51600000 52800000 ia
52800000 53600000 NH
53600000 54300000 e:
54300000 54600000 J
54600000 55700000 S
55700000 56800000 aa:
56800000 58100000 K
58100000 59700000 aa:
59700000 60000000 NH
60000000 60400000 ix
60400000 61400000 NG
61400000 61800000 NH
61800000 64100000 aa:
64100000 68100000 pm
68100000 69500000 T
69500000 70100000 R
70100000 70700000 e
70700000 71100000 J
71100000 72200000 C
72200000 73000000 ia
73000000 73300000 ?
73300000 74100000 aa:
74100000 74900000 H
74900000 75800000 aa:
75800000 76700000 P
76700000 77300000 i
77300000 78600000 S
78600000 79000000 e:
79000000 79300000 H
79300000 80400000 S
80400000 80700000 a
80700000 81200000 M
81200000 81800000 R
81800000 82200000 aa
82200000 82700000 P
82700000 83300000 B
83300000 84000000 a:
84000000 84600000 R
84600000 85000000 e
85000000 86300000 PH
86300000 87900000 ou:
87900000 90300000 K
90300000 91000000 NH
91000000 91400000 ek
91400000 91800000 W
91800000 93100000 P
93100000 94100000 e:
94100000 94400000 L
94400000 94900000 D
94900000 95400000 ea:
95400000 95700000 L
95700000 96200000 NH
96200000 97000000 eak
97000000 97300000 ?
97300000 98300000 PH
98300000 98700000 ek
98700000 99400000 K
99400000 100400000 S
100400000 101100000 aa:
101100000 102600000 K
102600000 104900000 e:
104900000 106700000 pm
106700000 107600000 sil
