0 2200000 sil
2200000 2900000 B
2900000 4600000 aa:
4600000 5400000 T
5400000 5900000 KH
5900000 6200000 N
6200000 7000000 u
7000000 7700000 M
7700000 8600000 D
8600000 9100000 ek
9100000 10300000 NG
10300000 17400000 pm
17400000 18400000 KH
18400000 18800000 N
18800000 19700000 u
19700000 20300000 M
20300000 21100000 M
21100000 22000000 ia
22000000 22500000 NH
22500000 23500000 K
23500000 24500000 oo
24500000 24800000 NH
24800000 25600000 P
25600000 26600000 i:
26600000 27000000 NH
27000000 27900000 eak
27900000 28200000 ?
28200000 28600000 H
28600000 30400000 ear
30400000 31700000 J
31700000 36000000 KH
36000000 36400000 N
36400000 37100000 u
37100000 38000000 M
38000000 38300000 ?
38300000 40000000 aa:
40000000 40900000 C
40900000 41500000 B
41500000 42300000 ao
42300000 43300000 K
43300000 43900000 K
43900000 44800000 o
44800000 45400000 ?
45400000 45900000 B
45900000 47000000 aa:
47000000 47400000 NH
47400000 48200000 T
48200000 49000000 ea:
49000000 49800000 M
49800000 50900000 D
50900000 51900000 a:
51900000 52300000 NG
52300000 53200000 K
53200000 53700000 o
53700000 54400000 T
54400000 54900000 KH
54900000 55600000 NH
55600000 55900000 ou
55900000 56400000 NG
56400000 56700000 M
56700000 57000000 uor
57000000 57300000 J
57300000 58300000 S
58300000 58800000 aa
58800000 59400000 P
59400000 59700000 B
59700000 60800000 D
60800000 62900000 aa:
62900000 67900000 pm
67900000 68300000 KH
68300000 68800000 N
68800000 69500000 u
69500000 70200000 M
70200000 71200000 C
71200000 72000000 a
72000000 72700000 NG
72700000 73100000 M
73100000 74100000 ia
74100000 74700000 NH
74700000 75100000 M
75100000 75400000 aa:
75400000 76700000 S
76700000 77300000 i:
77300000 77800000 NH
77800000 78600000 B
78600000 79400000 ao
79400000 80300000 K
80300000 81100000 K
81100000 82100000 o
82100000 83100000 ?
83100000 84000000 NH
84000000 84400000 ix
84400000 85100000 NG
85100000 85400000 M
85400000 85800000 aa:
85800000 87000000 S
87000000 87400000 i:
87400000 87800000 NH
87800000 88800000 S
88800000 89100000 a
89100000 89500000 M
89500000 90100000 NG
90100000 90800000 uor
90800000 91300000 T
91300000 91800000 PH
91800000 92500000 T
92500000 93000000 ix
93000000 93800000 L
93800000 94800000 KH
94800000 95600000 L
95600000 96600000 uor
96600000 97400000 NH
97400000 98500000 pm
98500000 99800000 sil
