0 2100000 sil
2100000 2500000 ?
2500000 3800000 a:
3800000 5100000 K
5100000 5600000 u
5600000 6500000 NH
6500000 7100000 D
7100000 7800000 ea:
7800000 8100000 L
8100000 8800000 B
8800000 9800000 aa:
9800000 10100000 NH
10100000 10800000 B
10800000 11400000 R
11400000 11700000 ek
11700000 12400000 NG
12400000 12900000 B
12900000 13500000 R
13500000 14700000 ea:
14700000 15000000 N
15000000 15800000 S
15800000 16100000 aa
16100000 16400000 ?
16400000 17100000 H
17100000 17800000 aa
17800000 18100000 ?
18100000 19200000 K
19200000 20500000 aa:
20500000 21400000 KH
21400000 22200000 NH
22200000 24300000 ia
24300000 26800000 T
26800000 27300000 eak
27300000 28200000 NG
28200000 28600000 W
28600000 29600000 ia
29600000 30700000 KH
30700000 31400000 M
31400000 31700000 i
31700000 32300000 NH
32300000 32600000 NH
32600000 33100000 ix
33100000 33500000 NG
33500000 34100000 NH
34100000 34800000 eak
34800000 35100000 ?
35100000 36000000 C
36000000 37300000 oo
37300000 37600000 L
37600000 37900000 R
37900000 39100000 uor
39100000 39600000 M
39600000 44700000 pm
44700000 45400000 KH
45400000 45800000 N
45800000 46500000 u
46500000 47400000 M
47400000 48600000 C
48600000 49300000 iar
49300000 50600000 C
50600000 51200000 eak
51200000 51500000 ?
51500000 52600000 TH
52600000 55000000 aa:
55000000 58900000 K
58900000 59400000 e
59400000 60600000 C
60600000 60900000 B
60900000 61200000 R
61200000 61500000 o:
61500000 62700000 C
62700000 63000000 u
63000000 63400000 M
63400000 64400000 NH
64400000 65700000 i
65700000 70300000 H
70300000 70800000 B
70800000 71400000 aa:
71400000 71900000 NH
71900000 72700000 P
72700000 73300000 D
73300000 74300000 a
74300000 74700000 L
74700000 75800000 PH
75800000 76700000 a:
76700000 77000000 L
77000000 77700000 B
77700000 78400000 R
78400000 78700000 o:
78700000 79900000 J
79900000 80400000 ou:
80400000 80700000 C
80700000 81900000 C
81900000 82400000 ia
82400000 83400000 C
83400000 84300000 R
84300000 84600000 ek:
84600000 85300000 NH
85300000 86100000 KH
86100000 86600000 NH
86600000 87100000 ou
87100000 87600000 NG
87600000 88500000 K
88500000 89500000 aa:
89500000 89800000 ?
89800000 90600000 aa
90600000 90900000 ?
90900000 91300000 NH
91300000 91600000 u
91600000 92700000 W
92700000 94000000 ia:
94000000 96300000 T
96300000 96700000 NH
96700000 97300000 ix
97300000 98100000 NG
98100000 98400000 B
98400000 98800000 a
98800000 99300000 NG
99300000 100300000 K
100300000 101100000 ear
101100000 101600000 T
101600000 102300000 K
102300000 102600000 u
102600000 102900000 M
102900000 104000000 NH
104000000 104300000 i
104300000 104700000 T
104700000 105700000 S
105700000 106000000 a
106000000 106500000 M
106500000 106800000 R
106800000 107400000 aa
107400000 108100000 P
108100000 108700000 P
108700000 109500000 uor
109500000 109800000 K
109800000 110300000 J
110300000 111400000 ek:
111400000 111800000 NG
111800000 112500000 T
112500000 113000000 eak
113000000 113400000 NG
113400000 113700000 ?
113700000 114200000 a
114200000 114700000 H
114700000 115200000 KH
115200000 115900000 NH
115900000 118100000 ia
118100000 122900000 D
122900000 123300000 ear
123300000 124100000 M
124100000 124700000 B
124700000 125300000 e
125300000 125800000 J
125800000 126300000 ?
126300000 127100000 aa
127100000 127400000 ?
127400000 127700000 NH
127700000 128000000 u
128000000 128800000 W
128800000 129800000 ia:
129800000 130200000 T
130200000 131000000 P
131000000 131600000 ia
131600000 132000000 NH
132000000 132500000 e
132500000 133000000 C
133000000 133500000 C
133500000 133800000 eak
133800000 134100000 ?
134100000 134700000 K
134700000 135500000 a
135500000 136000000 M
136000000 137000000 C
137000000 137300000 eak
137300000 137700000 ?
137700000 138700000 S
138700000 139400000 D
139400000 140800000 ea:
140800000 141500000 N
141500000 142700000 pm
142700000 144000000 sil
