0 2200000 sil
2200000 2800000 W
2800000 4100000 ia
4100000 5300000 C
5300000 5800000 ia
5800000 6800000 K
6800000 7500000 R
7500000 7800000 u
7800000 8100000 M
8100000 8400000 H
8400000 9100000 u
9100000 10100000 NH
10100000 10600000 M
10600000 11500000 aa:
11500000 11900000 ?
11900000 12600000 D
12600000 13500000 oo
13500000 14000000 NH
14000000 15200000 L
15200000 16000000 D
16000000 16300000 oo
16300000 17100000 C
17100000 17700000 KH
17700000 18700000 NH
18700000 20600000 ia
20600000 24000000 P
24000000 24400000 ou
24400000 24700000 NH
24700000 25800000 T
25800000 27000000 ea:
27000000 27300000 M
27300000 27600000 eak
27600000 27900000 ?
27900000 28500000 NH
28500000 28800000 u
28800000 29100000 H
29100000 30100000 D
30100000 30500000 ea:
30500000 30800000 L
30800000 32000000 TH
32000000 32300000 W
32300000 33100000 ek:
33100000 34100000 K
34100000 35400000 aa:
35400000 36000000 NH
36000000 36700000 ek
36700000 37000000 W
37000000 38000000 T
38000000 38900000 i:
38900000 39500000 NH
39500000 40900000 i
40900000 44000000 H
44000000 45000000 TH
45000000 45300000 W
45300000 46000000 ek:
46000000 47100000 S
47100000 47600000 aa
47600000 47900000 ?
47900000 48800000 K
48800000 49400000 aa
49400000 50500000 M
50500000 51800000 PH
51800000 52500000 ia
52500000 52900000 P
52900000 53200000 PH
53200000 54600000 S
54600000 55800000 e:
55800000 56100000 N
56100000 56900000 P
56900000 57700000 i:
57700000 58200000 NH
58200000 59000000 eak
59000000 59300000 ?
59300000 59800000 D
59800000 60100000 ea:
60100000 60400000 L
60400000 61600000 TH
61600000 61900000 W
61900000 62500000 ek:
62500000 63500000 K
63500000 64700000 aa:
64700000 65300000 NH
65300000 65700000 ek
65700000 66000000 W
66000000 66800000 KH
66800000 67300000 NH
67300000 67800000 ou
67800000 68300000 NG
68300000 68900000 P
68900000 69200000 R
69200000 69500000 a:
69500000 70500000 T
70500000 71400000 ee
71400000 71700000 H
71700000 72400000 C
72400000 72700000 o:
72700000 73800000 P
73800000 74700000 ou
74700000 75500000 NH
75500000 77300000 pm
77300000 78000000 sil
