0 2100000 sil
2100000 2400000 ?
2400000 5700000 oo
5700000 6000000 ?
6000000 6600000 a
6600000 7000000 H
7000000 8200000 C
8200000 9300000 aa:
9300000 9800000 NH
9800000 10500000 aa
10500000 10800000 H
10800000 11500000 S
11500000 11800000 ou
11800000 13000000 PH
13000000 15500000 ia
15500000 18300000 em
18300000 19200000 R
19200000 22100000 i:
22100000 22400000 K
22400000 22800000 R
22800000 23100000 ia
23100000 23400000 J
23400000 24400000 D
24400000 24800000 ea:
24800000 25100000 L
25100000 26000000 B
26000000 26700000 aa:
26700000 27000000 NH
27000000 27900000 C
27900000 28500000 uor
28500000 29000000 P
29000000 29700000 NH
29700000 30800000 eak
30800000 31100000 ?
31100000 38800000 pm
38800000 39400000 NH
39400000 40300000 eak
40300000 40600000 ?
40600000 41200000 P
41200000 41800000 R
41800000 42100000 a:
42100000 42600000 H
42600000 43500000 ea:
43500000 43800000 L
43800000 44700000 C
44700000 45200000 ia
45200000 46100000 TH
46100000 46800000 L
46800000 47500000 ia:
47500000 47900000 P
47900000 48500000 B
48500000 49300000 aa:
49300000 49800000 NH
49800000 50800000 K
50800000 51500000 aa
51500000 52000000 NH
52000000 53000000 K
53000000 53700000 aa
53700000 54200000 M
54200000 54700000 W
54700000 55200000 i
55200000 56500000 TH
56500000 57400000 i:
57400000 57900000 PH
57900000 58900000 S
58900000 59600000 e:
59600000 60000000 N
60000000 60400000 PH
60400000 61400000 S
61400000 62100000 e:
62100000 62400000 N
62400000 63200000 C
63200000 64000000 R
64000000 64300000 ek:
64300000 65200000 NH
65200000 65500000 H
65500000 67700000 ear
67700000 68400000 J
68400000 68700000 D
68700000 69000000 oo
69000000 69600000 C
69600000 69900000 CH
69900000 70200000 NH
70200000 70500000 e
70500000 78900000 H
78900000 79400000 M
79400000 81200000 i
81200000 81700000 NH
81700000 84700000 M
84700000 85600000 ia
85600000 85900000 NH
85900000 86200000 ?
86200000 87200000 W
87200000 87700000 e
87700000 88600000 J
88600000 88900000 B
88900000 89500000 L
89500000 90700000 ee:
90700000 91000000 K
91000000 91500000 NH
91500000 91800000 u
91800000 92100000 H
92100000 93500000 T
93500000 95900000 e:
95900000 100400000 pm
100400000 101000000 M
101000000 101900000 J
101900000 102800000 aa:
102800000 103500000 NG
103500000 103900000 W
103900000 104300000 i
104300000 104600000 N
104600000 105700000 T
105700000 106600000 ear:
106600000 107100000 T
107100000 107800000 ?
107800000 109000000 aa:
109000000 109500000 W
109500000 110300000 K
110300000 110900000 R
110900000 111600000 aa:
111600000 111900000 W
111900000 112700000 NH
112700000 113800000 i
113800000 114600000 H
114600000 115100000 P
115100000 115400000 i
115400000 116000000 T
116000000 116800000 C
116800000 117200000 ia
117200000 118400000 S
118400000 118700000 R
118700000 119000000 a
119000000 119300000 H
119300000 120100000 S
120100000 120400000 ?
120400000 121700000 aa:
121700000 122000000 T
122000000 122700000 M
122700000 124100000 ee:
124100000 125000000 NH
125000000 126400000 pm
126400000 127500000 sil
