0 2200000 sil
2200000 3000000 NH
3000000 3300000 u
3300000 4200000 H
4200000 5200000 C
5200000 6200000 ia
6200000 6500000 ?
6500000 7900000 W
7900000 8700000 e
8700000 9100000 J
9100000 9600000 D
9600000 10300000 ea:
10300000 10600000 L
10600000 11200000 KH
11200000 11600000 N
11600000 12200000 u
12200000 13000000 M
13000000 13800000 P
13800000 14200000 R
14200000 14700000 uor
14700000 15200000 J
15200000 16000000 B
16000000 16800000 aa:
16800000 17300000 R
17300000 18300000 a
18300000 19000000 M
19000000 23200000 pm
23200000 23600000 K
23600000 24100000 R
24100000 24900000 ia:
24900000 25400000 NH
25400000 26000000 T
26000000 26400000 ea:
26400000 27700000 C
27700000 28500000 aa
28500000 29100000 M
29100000 29900000 M
29900000 31600000 ek:
31600000 31900000 L
31900000 32400000 NH
32400000 32800000 ix
32800000 33100000 NG
33100000 34100000 S
34100000 34800000 D
34800000 35400000 aa
35400000 36200000 P
36200000 36700000 NH
36700000 37600000 eak
37600000 37900000 ?
37900000 38600000 B
38600000 39500000 ear
39500000 40000000 K
40000000 40300000 L
40300000 41300000 aa:
41300000 41600000 NH
41600000 42700000 K
42700000 43200000 R
43200000 43900000 ou
43900000 44500000 NG
44500000 44900000 B
44900000 45400000 R
45400000 46100000 aa
46100000 46800000 P
46800000 47800000 CH
47800000 48500000 M
48500000 49300000 uor
49300000 51200000 H
51200000 51900000 C
51900000 52300000 a
52300000 52600000 M
52600000 53300000 NH
53300000 54500000 a:
54500000 54800000 T
54800000 55100000 ?
55100000 55500000 ao
55500000 55800000 J
55800000 56600000 B
56600000 57300000 aa:
57300000 57600000 NH
57600000 58300000 C
58300000 59100000 B
59100000 60100000 aa
60100000 67800000 H
67800000 68400000 D
68400000 68800000 oo
68800000 69600000 C
69600000 70200000 CH
70200000 70700000 NH
70700000 71100000 e
71100000 71400000 H
71400000 72300000 J
72300000 73500000 ek:
73500000 73800000 NG
73800000 74200000 NH
74200000 74700000 ix
74700000 75400000 NG
75400000 75700000 M
75700000 76000000 i
76000000 76400000 NH
76400000 77600000 C
77600000 78400000 i:
78400000 78700000 H
78700000 79000000 H
79000000 80000000 uor
80000000 80500000 H
80500000 80800000 NH
80800000 81200000 u
81200000 81500000 H
81500000 83000000 T
83000000 85300000 e:
85300000 87100000 pm
87100000 88100000 sil
