0 2100000 sil
2100000 2500000 ?
2500000 2900000 a
2900000 3300000 H
3300000 4500000 L
4500000 5400000 ou:
5400000 6000000 K
6000000 6400000 L
6400000 7000000 ou:
7000000 7500000 K
7500000 8300000 S
8300000 8700000 R
8700000 9300000 e
9300000 9600000 J
9600000 10500000 T
10500000 11200000 eak
11200000 11800000 NG
11800000 12100000 ?
12100000 13200000 a
13200000 17400000 H
17400000 18400000 J
18400000 19500000 ek:
19500000 19800000 NG
19800000 20700000 C
20700000 21200000 aa
21200000 21600000 P
21600000 22100000 P
22100000 22700000 D
22700000 23700000 ear
23700000 24100000 M
24100000 25500000 C
25500000 26600000 ou
26600000 31700000 H
31700000 32300000 NH
32300000 32800000 ix
32800000 33100000 NG
33100000 34100000 T
34100000 34800000 R
34800000 35100000 oo
35100000 35600000 W
35600000 36500000 B
36500000 37400000 aa:
37400000 37800000 NH
37800000 38700000 C
38700000 39300000 ou
39300000 39600000 H
39600000 40700000 C
40700000 41700000 a:
41700000 42400000 T
42400000 43100000 KH
43100000 43700000 NH
43700000 44100000 ou
44100000 45000000 NG
45000000 45300000 R
45300000 45600000 o:
45600000 46400000 J
46400000 47100000 eak
47100000 47400000 ?
47400000 48600000 P
48600000 49400000 e:
49400000 49700000 L
49700000 50400000 D
50400000 50700000 a
50700000 51500000 P
51500000 51800000 B
51800000 52200000 R
52200000 53000000 aa
53000000 53300000 M
53300000 53800000 NH
53800000 54300000 ia
54300000 55500000 T
55500000 56400000 i:
56400000 57500000 T
57500000 58800000 ear:
58800000 59400000 T
59400000 65100000 pm
65100000 66400000 S
66400000 67400000 oo
67400000 67700000 M
67700000 68300000 M
68300000 68700000 e:
68700000 69400000 T
69400000 69800000 T
69800000 71200000 aa:
71200000 72500000 B
72500000 72800000 e
72800000 73700000 T
73700000 74200000 ?
74200000 74500000 u
74500000 75500000 P
75500000 75800000 aa
75800000 76100000 ?
76100000 77000000 K
77000000 78400000 a:
78400000 78700000 ?
78700000 79000000 e:
79000000 79600000 L
79600000 80100000 e
80100000 80600000 C
80600000 81000000 T
81000000 81500000 R
81500000 81900000 oo
81900000 82800000 NH
82800000 83400000 e
83400000 84000000 C
84000000 84300000 PH
84300000 85300000 S
85300000 86300000 e:
86300000 86600000 N
86600000 87000000 PH
87000000 88400000 S
88400000 92900000 e:
92900000 93200000 N
93200000 93800000 NH
93800000 94200000 ix
94200000 94700000 NG
94700000 95800000 T
95800000 96100000 u
96100000 96800000 K
96800000 97400000 D
97400000 97900000 aa
97900000 98400000 ?
98400000 99500000 S
99500000 100300000 a
100300000 100600000 M
100600000 101400000 PH
101400000 102200000 ia
102200000 102500000 R
102500000 103100000 eak
103100000 103400000 ?
103400000 104500000 C
104500000 105400000 ia:
105400000 106100000 P
106100000 106400000 KH
106400000 107400000 L
107400000 108600000 uor
108600000 109400000 NH
109400000 110700000 P
110700000 111100000 R
111100000 111500000 a:
111500000 112500000 K
112500000 113600000 a:
113600000 114100000 P
114100000 114700000 D
114700000 115600000 ao
115600000 115900000 J
115900000 116900000 S
116900000 117400000 ou
117400000 117900000 W
117900000 118400000 aa
118400000 118900000 T
118900000 119300000 T
119300000 119600000 e
119600000 120800000 PH
120800000 122100000 ia
122100000 122900000 P
122900000 124200000 pm
124200000 124700000 sil
