0 2100000 sil
2100000 2800000 D
2800000 3300000 ao
3300000 3700000 J
3700000 5100000 S
5100000 6200000 aa:
6200000 7300000 T
7300000 7900000 ea:
7900000 8700000 KH
8700000 9000000 N
9000000 10100000 u
10100000 11300000 M
11300000 12000000 B
12000000 12700000 aa:
12700000 13100000 NH
13100000 14100000 T
14100000 14400000 e
14400000 15100000 N
15100000 15600000 W
15600000 15900000 ia:
15900000 16700000 T
16700000 17200000 TH
17200000 17800000 ou
17800000 18200000 ?
18200000 18700000 aa
18700000 19000000 ?
19000000 19700000 NH
19700000 20200000 u
20200000 21400000 S
21400000 22100000 aa:
22100000 22600000 W
22600000 22900000 aa
22900000 23200000 ?
23200000 23500000 R
23500000 24600000 i:
24600000 25600000 C
25600000 26100000 ia
26100000 27400000 C
27400000 28900000 R
28900000 29200000 ek:
29200000 30400000 NH
30400000 31200000 D
31200000 31800000 aa
31800000 32400000 ?
32400000 33600000 C
33600000 34600000 oo
34600000 34900000 L
34900000 35800000 T
35800000 36300000 ek
36300000 36600000 W
36600000 37600000 KH
37600000 38400000 NH
38400000 38900000 ou
38900000 39700000 NG
39700000 40100000 W
40100000 40600000 aa:
40600000 41500000 L
41500000 42700000 i:
42700000 43200000 R
43200000 43600000 o:
43600000 44300000 B
44300000 44800000 a
44800000 45300000 H
45300000 45700000 KH
45700000 46000000 N
46000000 46900000 u
46900000 48000000 M
48000000 48300000 D
48300000 48600000 oo
48600000 54100000 C
54100000 54700000 NH
54700000 57600000 i
57600000 60600000 H
60600000 61200000 KH
61200000 61600000 N
61600000 62400000 u
62400000 63300000 M
63300000 64200000 T
64200000 64800000 R
64800000 65100000 u:
65100000 65400000 W
65400000 66400000 K
66400000 67700000 aa:
67700000 68800000 K
68800000 69100000 aa:
69100000 70100000 B
70100000 70900000 oo
70900000 71700000 P
71700000 72300000 M
72300000 73600000 uor
73600000 75000000 J
75000000 75600000 R
75600000 76400000 ix
76400000 76800000 R
76800000 77400000 o:
77400000 78100000 B
78100000 79800000 a
79800000 80200000 H
80200000 80500000 ?
80500000 80800000 W
80800000 81200000 e
81200000 81700000 J
81700000 82500000 M
82500000 83300000 uor
83300000 83900000 J
83900000 84300000 D
84300000 85100000 oo
85100000 85600000 C
85600000 86200000 NH
86200000 86500000 u
86500000 87800000 H
87800000 88600000 pm
88600000 89900000 sil
