0 2200000 sil
2200000 3100000 NH
3100000 4000000 eak
4000000 4300000 ?
4300000 4600000 NH
4600000 5100000 ix
5100000 5700000 NG
5700000 6700000 C
6700000 7500000 aa:
7500000 7800000 ?
7800000 9100000 C
9100000 9800000 e:
9800000 10100000 NH
10100000 10500000 NH
10500000 11000000 ek
11000000 11300000 W
11300000 12600000 TH
12600000 12900000 NG
12900000 13500000 aa
13500000 14000000 J
14000000 14800000 T
14800000 15800000 i:
15800000 16500000 D
16500000 17000000 a
17000000 17600000 P
17600000 18100000 P
18100000 18400000 R
18400000 18700000 aa
18700000 19200000 M
19200000 19900000 M
19900000 21300000 uor
21300000 22500000 J
22500000 29500000 pm
29500000 30500000 R
30500000 31100000 uor
31100000 31900000 C
31900000 32300000 R
32300000 33300000 ia:
33300000 33600000 L
33600000 33900000 H
33900000 34900000 ear
34900000 35500000 J
35500000 36100000 L
36100000 37500000 ou:
37500000 38000000 K
38000000 41400000 pm
41400000 42000000 B
42000000 42300000 a
42300000 42600000 NH
42600000 43700000 T
43700000 44300000 o
44300000 44900000 P
44900000 45400000 R
45400000 46000000 o:
46000000 46600000 B
46600000 47600000 a
47600000 47900000 H
47900000 48500000 NH
48500000 49900000 eak
49900000 50700000 ?
50700000 51800000 K
51800000 53100000 ix:
53100000 54100000 L
54100000 55000000 e:
55000000 55700000 K
55700000 56000000 B
56000000 56700000 R
56700000 57400000 aa
57400000 58100000 M
58100000 58600000 R
58600000 59100000 o:
59100000 59600000 J
59600000 60200000 H
60200000 60800000 ou
60800000 61500000 K
61500000 62200000 S
62200000 62500000 e
62500000 63400000 P
63400000 63700000 B
63700000 64100000 R
64100000 65200000 aa
65200000 66200000 M
66200000 68400000 NH
68400000 69100000 ek
69100000 69400000 W
69400000 70600000 C
70600000 71600000 ia:
71600000 72000000 NH
72000000 72800000 T
72800000 73900000 i:
73900000 74500000 B
74500000 75200000 R
75200000 76300000 aa
76300000 77000000 M
77000000 82400000 pm
82400000 83400000 NH
83400000 84100000 eak
84100000 84400000 ?
84400000 85200000 B
85200000 85600000 a
85600000 86500000 M
86500000 87100000 R
87100000 88600000 ear
88600000 89100000 NH
89100000 89600000 ek
89600000 89900000 W
89900000 90800000 S
90800000 91100000 a
91100000 91500000 NH
91500000 92400000 TH
92400000 93400000 aa:
93400000 94700000 K
94700000 96200000 ia
96200000 96600000 NH
96600000 97000000 ix
97000000 97500000 NG
97500000 98700000 C
98700000 99600000 u:
99600000 99900000 NH
99900000 100200000 NH
100200000 100900000 eak
100900000 101200000 ?
101200000 102200000 T
102200000 102500000 ek
102500000 102800000 W
102800000 103600000 K
103600000 104300000 aa
104300000 105100000 NH
105100000 105400000 B
105400000 105700000 a
105700000 106000000 NH
106000000 107400000 T
107400000 108100000 o
108100000 109000000 P
109000000 109600000 pm
109600000 110700000 sil
