0 2200000 sil
2200000 2500000 ?
2500000 3400000 e
3400000 3800000 J
3800000 4200000 L
4200000 4500000 ou
4500000 5000000 W
5000000 5700000 NH
5700000 7100000 i
7100000 10400000 H
10400000 10900000 K
10900000 12500000 aa:
12500000 12900000 H
12900000 13800000 a
13800000 14100000 H
14100000 14500000 H
14500000 16600000 ear
16600000 17100000 R
17100000 17600000 o:
17600000 18400000 B
18400000 19100000 a
19100000 19400000 H
19400000 20200000 NH
20200000 21500000 eak
21500000 22100000 ?
22100000 23100000 T
23100000 23700000 R
23700000 24000000 oo
24000000 24600000 W
24600000 25400000 B
25400000 26100000 aa:
26100000 26500000 NH
26500000 27700000 K
27700000 29000000 e:
29000000 29500000 J
29500000 30100000 o
30100000 30500000 L
30500000 31500000 P
31500000 32000000 R
32000000 32600000 o:
32600000 33300000 M
33300000 33900000 H
33900000 35900000 ear
35900000 37100000 J
37100000 44800000 ?
44800000 45800000 W
45800000 46300000 e
46300000 46700000 J
46700000 47600000 K
47600000 48000000 R
48000000 48300000 u
48300000 48800000 P
48800000 49900000 J
49900000 51100000 aa:
51100000 51500000 NG
51500000 52400000 K
52400000 53300000 ix:
53300000 54000000 M
54000000 54300000 i
54300000 54800000 NH
54800000 55100000 ?
55100000 55600000 e
55600000 56200000 J
56200000 57400000 T
57400000 59800000 e:
59800000 67500000 pm
67500000 68900000 S
68900000 69900000 oo
69900000 70200000 M
70200000 70500000 ?
70500000 71400000 ao
71400000 71700000 J
71700000 72000000 M
72000000 73200000 ia
73200000 73600000 NH
73600000 74500000 S
74500000 74800000 a
74800000 75100000 M
75100000 75700000 NH
75700000 76800000 aa:
76800000 77200000 NG
77200000 77500000 L
77500000 77800000 ?
77800000 80000000 a:
80000000 80600000 KH
80600000 81200000 NH
81200000 81600000 ou
81600000 82100000 NG
82100000 82800000 K
82800000 83900000 aa:
83900000 85100000 TH
85100000 85400000 W
85400000 86000000 ek:
86000000 86800000 D
86800000 87100000 a
87100000 87400000 M
87400000 88400000 NH
88400000 90600000 ear
90600000 92000000 pm
92000000 93100000 sil
