0 2200000 sil
2200000 2500000 KH
2500000 3100000 N
3100000 4000000 u
4000000 5100000 M
5100000 6400000 P
6400000 6700000 i
6700000 7400000 T
7400000 8100000 C
8100000 8600000 ia
8600000 9900000 C
9900000 10600000 aa
10600000 11200000 P
11200000 11600000 ?
11600000 11900000 aa:
11900000 12800000 R
12800000 13300000 a
13300000 14200000 M
14200000 14500000 J
14500000 15300000 aa:
15300000 15900000 NG
15900000 16600000 KH
16600000 17400000 L
17400000 18300000 aa
18300000 19600000 NG
19600000 20800000 C
20800000 21200000 a
21200000 21700000 M
21700000 22800000 P
22800000 23400000 uor
23400000 23700000 H
23700000 24800000 S
24800000 25700000 a
25700000 26000000 M
26000000 26800000 PH
26800000 27700000 ia
27700000 28100000 R
28100000 29100000 eak
29100000 29400000 ?
29400000 30500000 P
30500000 31500000 aa
31500000 31800000 ?
31800000 32100000 R
32100000 32600000 e
32600000 32900000 ?
32900000 34000000 KH
34000000 35100000 aa:
35100000 35900000 T
35900000 36200000 u
36200000 36500000 M
36500000 37500000 NH
37500000 38200000 ek:
38200000 38700000 P
38700000 39200000 T
39200000 39500000 u
39500000 39800000 M
39800000 41200000 NH
41200000 42200000 ek:
42200000 45000000 P
45000000 45500000 NH
45500000 46000000 ix
46000000 46500000 NG
46500000 47400000 K
47400000 49100000 aa:
49100000 49400000 R
49400000 49900000 ear:
49900000 50600000 P
50600000 51200000 C
51200000 52000000 a
52000000 52400000 M
52400000 53400000 S
53400000 53700000 e
53700000 54000000 ?
54000000 54900000 KH
54900000 56000000 aa:
56000000 57000000 S
57000000 57300000 aa:
57300000 58100000 L
58100000 59700000 aa:
59700000 60100000 R
60100000 60400000 o:
60400000 61200000 B
61200000 62100000 a
62100000 62500000 H
62500000 62900000 NH
62900000 63800000 eak
63800000 64100000 ?
64100000 65100000 B
65100000 66000000 aa:
66000000 66400000 NH
66400000 66700000 J
66700000 67900000 aa:
67900000 68200000 NG
68200000 68800000 L
68800000 69100000 ?
69100000 72100000 a:
72100000 76000000 pm
76000000 77400000 C
77400000 78000000 ia
78000000 79000000 P
79000000 79500000 i
79500000 81100000 S
81100000 81600000 e:
81600000 85800000 H
85800000 86600000 W
86600000 87900000 ia
87900000 89100000 K
89100000 90100000 ix:
90100000 91200000 C
91200000 91800000 ia
91800000 92900000 B
92900000 93400000 a
93400000 93900000 T
93900000 94700000 P
94700000 95100000 i
95100000 96400000 S
96400000 97200000 ao
97200000 97800000 T
97800000 98500000 D
98500000 99100000 a:
99100000 100000000 S
100000000 100300000 a
100300000 100900000 M
100900000 102000000 KH
102000000 102700000 aa
102700000 103400000 NH
103400000 104200000 M
104200000 105400000 uor
105400000 105900000 J
105900000 106900000 S
106900000 107200000 a
107200000 107600000 M
107600000 108100000 R
108100000 108700000 aa
108700000 109300000 P
109300000 109800000 KH
109800000 110200000 N
110200000 111200000 u
111200000 113200000 M
113200000 117300000 D
117300000 117900000 ea:
117900000 118200000 L
118200000 119100000 B
119100000 120100000 aa:
120100000 120400000 NH
120400000 121700000 C
121700000 122600000 oo
122600000 122900000 L
122900000 123700000 T
123700000 124100000 ek
124100000 124400000 W
124400000 125300000 KH
125300000 126100000 NH
126100000 126700000 ou
126700000 127500000 NG
127500000 128500000 KH
128500000 129200000 L
129200000 130100000 eak
130100000 130800000 NG
130800000 131500000 K
131500000 131800000 ou
131800000 132400000 M
132400000 133500000 P
133500000 133800000 J
133800000 134100000 u:
134100000 135300000 T
135300000 136400000 ix:
136400000 137400000 T
137400000 138000000 eak
138000000 138500000 NG
138500000 138800000 ?
138800000 139800000 a
139800000 140100000 H
140100000 140900000 R
140900000 141500000 o:
141500000 142300000 B
142300000 142900000 a
142900000 143200000 H
143200000 143700000 NH
143700000 144800000 eak
144800000 145100000 ?
145100000 145800000 pm
145800000 147200000 sil
