0 1500000 sil
1500000 1900000 KH
1900000 2400000 N
2400000 3200000 u
3200000 4300000 M
4300000 4700000 D
4700000 5200000 ek
5200000 5900000 NG
5900000 6500000 H
6500000 8500000 ear
8500000 9500000 J
9500000 11300000 pm
11300000 12800000 T
12800000 13500000 uor
13500000 14700000 H
14700000 16400000 J
16400000 17000000 aa:
17000000 17500000 NG
17500000 18000000 NH
18000000 20300000 aa:
20300000 21400000 KH
21400000 21900000 N
21900000 22800000 u
22800000 23600000 M
23600000 23900000 NH
23900000 24500000 ix
24500000 25100000 NG
25100000 26300000 S
26300000 26800000 ou
26800000 27500000 M
27500000 27800000 ?
27800000 28900000 ao
28900000 29200000 J
29200000 30300000 P
30300000 30700000 oo
30700000 31900000 L
31900000 32300000 i:
32300000 32700000 H
32700000 33900000 TH
33900000 34200000 W
34200000 35100000 ek:
35100000 36000000 K
36000000 36300000 a
36300000 36700000 M
36700000 37300000 NH
37300000 38000000 a
38000000 38600000 T
38600000 39200000 H
39200000 40600000 ea:
40600000 41300000 T
41300000 46700000 pm
46700000 47500000 C
47500000 48200000 ia
48200000 49000000 D
49000000 49300000 a
49300000 50100000 M
50100000 50900000 B
50900000 52100000 oo
52100000 52800000 NG
52800000 54000000 S
54000000 54900000 oo
54900000 55300000 M
55300000 55900000 P
55900000 56800000 D
56800000 57600000 a
57600000 58000000 L
58000000 58300000 ?
58300000 59100000 ao
59100000 59600000 J
59600000 60200000 KH
60200000 60500000 N
60500000 61500000 u
61500000 62200000 M
62200000 62800000 NH
62800000 63200000 ek
63200000 63600000 W
63600000 65000000 CH
65000000 65700000 M
65700000 66700000 uor
66700000 67900000 H
67900000 68500000 NH
68500000 69100000 ix
69100000 69700000 NG
69700000 70600000 S
70600000 70900000 aa
70900000 71300000 N
71300000 72700000 C
72700000 73200000 ia
73200000 73800000 T
73800000 74400000 R
74400000 74800000 o:
74800000 75400000 B
75400000 75900000 a
75900000 76200000 H
76200000 76900000 NH
76900000 77700000 eak
77700000 78000000 ?
78000000 79000000 S
79000000 79600000 ek
79600000 80800000 NH
80800000 82200000 pm
82200000 83800000 sil
