0 2200000 sil
2200000 2700000 K
2700000 3500000 R
3500000 4100000 ao
4100000 4400000 J
4400000 5200000 P
5200000 6200000 i:
6200000 6700000 KH
6700000 7200000 N
7200000 8100000 u
8100000 9100000 M
9100000 9700000 B
9700000 10400000 aa:
10400000 10700000 NH
10700000 11800000 T
11800000 12300000 e
12300000 12800000 N
12800000 13700000 R
13700000 14300000 o:
14300000 15000000 B
15000000 15800000 a
15800000 16100000 H
16100000 16400000 R
16400000 16900000 o:
16900000 17700000 B
17700000 19000000 a:
19000000 20000000 KH
20000000 20600000 L
20600000 21400000 aa
21400000 25000000 H
25000000 25500000 KH
25500000 25900000 N
25900000 26800000 u
26800000 27600000 M
27600000 28000000 M
28000000 28400000 i
28400000 29100000 NH
29100000 29800000 P
29800000 30400000 R
30400000 30800000 aa:
30800000 32000000 K
32000000 32600000 a
32600000 33100000 D
33100000 34200000 P
34200000 35300000 i:
35300000 36000000 D
36000000 36400000 a
36400000 37400000 M
37400000 37700000 L
37700000 38400000 aa
38400000 38800000 J
38800000 39800000 S
39800000 40200000 aa
40200000 40500000 ?
40500000 41000000 R
41000000 41400000 ou
41400000 42100000 P
42100000 42600000 NH
42600000 42900000 u
42900000 44100000 H
44100000 44800000 T
44800000 49500000 e:
49500000 49900000 D
49900000 50600000 oo
50600000 51200000 C
51200000 52100000 CH
52100000 52700000 NH
52700000 53600000 e
53600000 55200000 H
55200000 55600000 KH
55600000 55900000 N
55900000 57000000 u
57000000 58200000 M
58200000 58700000 L
58700000 59900000 ia
59900000 60600000 K
60600000 61100000 R
61100000 61400000 a:
61400000 62300000 D
62300000 63200000 aa:
63200000 63700000 H
63700000 64000000 B
64000000 64500000 R
64500000 65400000 aa
65400000 65700000 ?
65700000 66100000 D
66100000 66900000 ea:
66900000 67300000 L
67300000 67900000 KH
67900000 68200000 N
68200000 69100000 u
69100000 69900000 M
69900000 70300000 M
70300000 71700000 ia
71700000 72600000 NH
72600000 73100000 D
73100000 73800000 oo
73800000 74800000 C
74800000 75300000 C
75300000 75900000 ia
75900000 76900000 B
76900000 78800000 ear:
78800000 79100000 R
79100000 79400000 o:
79400000 89300000 H
89300000 91100000 ear
91100000 91600000 J
91600000 92000000 ?
92000000 93300000 ao
93300000 93800000 J
93800000 94700000 B
94700000 95100000 ou
95100000 95700000 K
95700000 96500000 K
96500000 97100000 o
97100000 97700000 L
97700000 98000000 M
98000000 99400000 NH
99400000 100400000 eak
100400000 100700000 ?
100700000 101600000 J
101600000 102500000 o:
102500000 102900000 K
102900000 103700000 C
103700000 104000000 a
104000000 104300000 M
104300000 105000000 NH
105000000 106000000 uor
106000000 106400000 NH
106400000 107000000 D
107000000 107400000 ea:
107400000 107700000 L
107700000 108500000 T
108500000 108900000 R
108900000 109200000 ek
109200000 110000000 M
110000000 110800000 T
110800000 111600000 R
111600000 111900000 oo
111900000 113600000 W
113600000 121000000 pm
121000000 121600000 P
121600000 122200000 ou
122200000 122600000 NH
122600000 123700000 T
123700000 125200000 ea:
125200000 126600000 P
126600000 127400000 e:
127400000 127900000 L
127900000 128400000 KH
128400000 128800000 N
128800000 129700000 u
129700000 130500000 M
130500000 131200000 T
131200000 132300000 R
132300000 132600000 a:
132600000 132900000 L
132900000 133500000 a
133500000 134400000 P
134400000 134700000 M
134700000 135600000 o:
135600000 135900000 ?
135900000 136400000 D
136400000 137200000 a
137200000 137500000 L
137500000 138600000 S
138600000 138900000 a
138900000 139300000 NH
139300000 140100000 TH
140100000 140900000 aa:
140900000 142200000 K
142200000 143000000 ia
143000000 144200000 W
144200000 144700000 i
144700000 150600000 N
150600000 151100000 NH
151100000 151600000 ix
151600000 152400000 NG
152400000 153200000 B
153200000 154300000 aa:
154300000 154700000 NH
154700000 155900000 K
155900000 156700000 eak
156700000 157600000 ?
157600000 159400000 NH
159400000 159700000 aa
159700000 160200000 ?
160200000 160500000 aa:
160500000 160800000 B
160800000 161300000 R
161300000 162000000 aa
162000000 162300000 ?
162300000 163000000 D
163000000 163600000 ea:
163600000 164000000 L
164000000 164500000 KH
164500000 164900000 N
164900000 165700000 u
165700000 166200000 M
166200000 166900000 NH
166900000 167500000 ek
167500000 167800000 W
167800000 169200000 S
169200000 170600000 a
170600000 171400000 L
171400000 174800000 K
174800000 175900000 ix:
175900000 176900000 M
176900000 177900000 ia
177900000 178200000 NH
178200000 179100000 C
179100000 179400000 a
179400000 179700000 M
179700000 180400000 NH
180400000 181300000 uor
181300000 181600000 NH
181600000 182800000 T
182800000 183400000 e
183400000 184200000 C
184200000 184600000 M
184600000 185300000 ee:
185300000 185600000 NH
185600000 186900000 T
186900000 188300000 ee:
188300000 189000000 NH
189000000 190400000 pm
190400000 191700000 sil
