0 2100000 sil
2100000 2900000 B
2900000 4300000 aa:
4300000 7700000 T
7700000 8200000 W
8200000 9300000 ia
9300000 10200000 M
10200000 10900000 ek:
10900000 11200000 L
11200000 12200000 T
12200000 13100000 ek
13100000 13500000 W
13500000 14500000 K
14500000 15200000 uor
15200000 15500000 ?
15500000 15900000 ao
15900000 16300000 J
16300000 17100000 C
17100000 17900000 aa
17900000 18300000 P
18300000 18600000 ?
18600000 18900000 aa:
18900000 19500000 R
19500000 20100000 a
20100000 20500000 M
20500000 21400000 D
21400000 22700000 ea:
22700000 23700000 T
23700000 24600000 aa:
24600000 24900000 M
24900000 25200000 R
25200000 25500000 o:
25500000 26300000 J
26300000 26900000 eak
26900000 27200000 ?
27200000 27700000 PH
27700000 28700000 N
28700000 29800000 ear:
29800000 30900000 W
30900000 35200000 P
35200000 35600000 ou
35600000 36000000 NH
36000000 36800000 T
36800000 38100000 ea:
38100000 38700000 W
38700000 39700000 ia
39700000 40600000 C
40600000 40900000 a
40900000 41200000 M
41200000 41500000 NH
41500000 42300000 aa:
42300000 42800000 J
42800000 43900000 P
43900000 44600000 e:
44600000 45000000 L
45000000 46500000 P
46500000 46800000 e:
46800000 47100000 N
47100000 47900000 M
47900000 48200000 uor
48200000 48800000 J
48800000 50000000 TH
50000000 50300000 NG
50300000 51500000 aa
51500000 52500000 J
52500000 58800000 pm
58800000 59200000 KH
59200000 59600000 N
59600000 60500000 u
60500000 61300000 M
61300000 62500000 C
62500000 63400000 a
63400000 63700000 NG
63700000 64700000 C
64700000 65400000 i:
65400000 65700000 H
65700000 66400000 K
66400000 66700000 aa
66700000 67000000 ?
67000000 68000000 P
68000000 68900000 aa
68900000 69300000 L
69300000 69800000 K
69800000 70100000 a
70100000 70600000 M
70600000 72000000 S
72000000 73300000 aa:
73300000 74100000 NH
74100000 74400000 NH
74400000 75200000 ek
75200000 75500000 W
75500000 76400000 T
76400000 76700000 o
76700000 77800000 NH
77800000 78100000 L
78100000 79400000 e:
79400000 79900000 D
79900000 80200000 ao
80200000 80900000 J
80900000 81300000 KH
81300000 81900000 L
81900000 82500000 uor
82500000 82900000 NH
82900000 83200000 ?
83200000 84000000 ea:
84000000 84600000 N
84600000 85500000 W
85500000 86000000 i
86000000 86400000 N
86400000 88600000 pm
88600000 89700000 sil
