0 2200000 sil
2200000 2500000 ?
2500000 3100000 a
3100000 3600000 H
3600000 4700000 L
4700000 5700000 ou:
5700000 6200000 K
6200000 6700000 L
6700000 7400000 ou:
7400000 7800000 K
7800000 8500000 S
8500000 9000000 R
9000000 9500000 e
9500000 9900000 J
9900000 10700000 T
10700000 11200000 eak
11200000 11800000 NG
11800000 12100000 ?
12100000 13400000 a
13400000 20300000 H
20300000 21300000 J
21300000 22900000 ek:
22900000 23200000 NG
23200000 23600000 NH
23600000 24200000 ix
24200000 24900000 NG
24900000 25900000 C
25900000 26600000 aa
26600000 27300000 P
27300000 27800000 P
27800000 28800000 D
28800000 29700000 ear
29700000 30200000 M
30200000 31300000 C
31300000 31800000 aa
31800000 32400000 ?
32400000 33200000 R
33200000 34800000 iar
34800000 35200000 NG
35200000 35500000 R
35500000 36000000 o:
36000000 36700000 B
36700000 37300000 a
37300000 37600000 H
37600000 38400000 J
38400000 40100000 ek:
40100000 41200000 NG
41200000 42200000 KH
42200000 43000000 NH
43000000 43600000 ou
43600000 44500000 NG
44500000 44800000 R
44800000 45100000 o:
45100000 46100000 J
46100000 46900000 eak
46900000 47200000 ?
47200000 48300000 P
48300000 49000000 e:
49000000 49400000 L
49400000 50400000 KH
50400000 51100000 L
51100000 51900000 e
51900000 52900000 J
52900000 63499999 pm
63500000 64500000 S
64500000 65000000 a
65000000 65800000 M
65800000 66600000 L
66600000 67600000 e:
67600000 67900000 N
67900000 68600000 S
68600000 69000000 a
69000000 69400000 M
69400000 70000000 R
70000000 70500000 aa
70500000 71000000 P
71000000 71400000 KH
71400000 72300000 S
72300000 73400000 ea:
73400000 74300000 PH
74300000 75000000 ia
75000000 75700000 P
75700000 76200000 J
76200000 76600000 o
76600000 76900000 NH
76900000 77700000 NH
77700000 79100000 i
79100000 83800000 H
83800000 84400000 K
84400000 85700000 ix:
85700000 86800000 S
86800000 87500000 TH
87500000 88100000 e
88100000 88800000 T
88800000 89500000 NH
89500000 90400000 ek
90400000 90700000 W
90700000 91700000 L
91700000 92700000 ek:
92700000 94200000 CH
94200000 94500000 aa:
94500000 95500000 NH
95500000 96800000 ee:
96800000 97200000 L
97200000 97700000 L
97700000 98500000 e:
98500000 98800000 K
98800000 99400000 M
99400000 100700000 uor
100700000 101800000 J
101800000 109500000 pm
109500000 110100000 NH
110100000 111300000 eak
111300000 111700000 ?
111700000 112000000 ?
112000000 113100000 aa:
113100000 113500000 C
113500000 114200000 S
114200000 114800000 D
114800000 115600000 aa
115600000 116400000 P
116400000 117000000 K
117000000 118200000 aa:
118200000 119200000 B
119200000 119800000 a:
119800000 120500000 ?
120500000 120800000 B
120800000 121400000 R
121400000 122600000 ee:
122600000 123900000 C
123900000 124700000 ia
124700000 125600000 PH
125600000 126100000 ia
126100000 127300000 S
127300000 128300000 aa:
128300000 129100000 C
129100000 129400000 o:
129400000 130800000 P
130800000 131800000 ou
131800000 137200000 NH
137200000 138100000 NH
138100000 138800000 ek
138800000 139100000 W
139100000 140300000 L
140300000 141200000 ek:
141200000 142300000 CH
142300000 142700000 aa:
142700000 143700000 NH
143700000 144700000 ee:
144700000 145000000 L
145000000 145500000 L
145500000 146000000 e:
146000000 147200000 K
147200000 147800000 P
147800000 150000000 i:
150000000 151200000 pm
151200000 152700000 sil
