0 2000000 sil
2000000 2600000 T
2600000 3000000 ek
3000000 3300000 W
3300000 4300000 T
4300000 5300000 aa:
5300000 5700000 M
5700000 6600000 PH
6600000 7500000 L
7500000 7800000 oo
7800000 8300000 W
8300000 9600000 PH
9600000 10500000 aa:
10500000 10800000 M
10800000 11700000 S
11700000 12300000 T
12300000 12800000 R
12800000 13500000 i:
13500000 14000000 T
14000000 14300000 NH
14300000 14700000 i
14700000 15000000 H
15000000 16200000 T
16200000 17000000 R
17000000 17900000 a
17900000 19000000 NG
19000000 21500000 pm
21500000 23200000 B
23200000 23600000 a
23600000 24100000 T
24100000 24900000 S
24900000 25700000 D
25700000 26400000 aa
26400000 27100000 M
27100000 27500000 NH
27500000 28000000 ek
28000000 28300000 W
28300000 29200000 T
29200000 29800000 R
29800000 30500000 a
30500000 31100000 NG
31100000 31800000 NH
31800000 32100000 u
32100000 33300000 H
33300000 35800000 H
35800000 37700000 ear
37700000 38100000 J
38100000 38900000 D
38900000 39900000 ear
39900000 40700000 P
40700000 41000000 R
41000000 41300000 a:
41300000 42200000 H
42200000 43000000 ea:
43000000 43300000 L
43300000 44200000 B
44200000 44600000 R
44600000 45700000 aa
45700000 46000000 M
46000000 46300000 NH
46300000 46800000 ia
46800000 48200000 T
48200000 50200000 i:
50200000 57900000 pm
57900000 58400000 NH
58400000 59400000 eak
59400000 59900000 ?
59900000 60200000 NH
60200000 60900000 ix
60900000 61500000 NG
61500000 62500000 KH
62500000 63700000 ek:
63700000 64000000 N
64000000 65000000 H
65000000 66100000 aa:
66100000 66600000 NG
66600000 66900000 NH
66900000 67200000 u
67200000 68200000 M
68200000 69200000 P
69200000 70000000 aa
70000000 71100000 NG
71100000 71400000 M
71400000 72700000 uor
72700000 74400000 J
74400000 75000000 NH
75000000 75800000 ek
75800000 76200000 W
76200000 77200000 KH
77200000 77500000 aa:
77500000 78100000 NG
78100000 79000000 CH
79000000 79400000 W
79400000 80000000 e:
80000000 80300000 N
80300000 81100000 D
81100000 82200000 aa
82200000 83000000 J
83000000 85500000 pm
85500000 85800000 sil
