0 2100000 sil
2100000 3100000 J
3100000 4300000 ek:
4300000 4600000 NG
4600000 6000000 S
6000000 6900000 oo
6900000 7500000 M
7500000 8000000 NH
8000000 9300000 ea:
9300000 9900000 NH
9900000 11000000 ia:
11000000 11600000 M
11600000 11900000 ?
11900000 12600000 ao
12600000 12900000 J
12900000 13400000 NH
13400000 14200000 eak
14200000 14500000 ?
14500000 15300000 S
15300000 16200000 K
16200000 17200000 ia:
17200000 17500000 L
17500000 18600000 P
18600000 19100000 i:
19100000 20300000 T
20300000 21000000 i:
21000000 22100000 K
22100000 22500000 R
22500000 22800000 ou
22800000 23600000 NG
23600000 24700000 T
24700000 25100000 e:
25100000 26100000 S
26100000 27100000 C
27100000 28400000 a:
28400000 29200000 B
29200000 29800000 u:
29800000 31300000 H
31300000 33200000 NH
33200000 38300000 pm
38300000 39000000 KH
39000000 39700000 NH
39700000 40100000 ou
40100000 40500000 NG
40500000 40800000 ?
40800000 41700000 ao
41700000 42900000 K
42900000 43800000 aa:
43800000 44100000 H
44100000 44800000 NH
44800000 45900000 i
45900000 50100000 H
50100000 50700000 NH
50700000 51800000 eak
51800000 52100000 ?
52100000 52400000 NH
52400000 53200000 ix
53200000 54000000 NG
54000000 54400000 M
54400000 55300000 ek:
55300000 55800000 L
55800000 56800000 KH
56800000 57700000 ek:
57700000 58200000 N
58200000 59100000 C
59100000 59400000 a
59400000 59700000 M
59700000 60400000 NH
60400000 61000000 ou
61000000 61800000 C
61800000 62300000 D
62300000 62800000 ea:
62800000 63100000 L
63100000 64300000 K
64300000 65300000 uor
65300000 65600000 ?
65600000 66100000 ao
66100000 66400000 J
66400000 67400000 C
67400000 68000000 aa
68000000 68500000 P
68500000 68800000 ?
68800000 69600000 aa:
69600000 70000000 R
70000000 70700000 a
70700000 71300000 M
71300000 72200000 S
72200000 72500000 a
72500000 73100000 M
73100000 73900000 KH
73900000 74600000 aa
74600000 75100000 NH
75100000 75700000 S
75700000 76000000 a
76000000 76400000 M
76400000 77400000 KH
77400000 78100000 aa
78100000 78500000 NH
78500000 79500000 C
79500000 79900000 ia
79900000 81200000 C
81200000 82300000 R
82300000 82800000 ek:
82800000 83500000 NH
83500000 83800000 NH
83800000 84400000 ek
84400000 84800000 W
84800000 85600000 KH
85600000 86100000 NH
86100000 86600000 ou
86600000 87200000 NG
87200000 88100000 T
88100000 88800000 i:
88800000 89700000 K
89700000 90300000 R
90300000 90600000 ou
90600000 91700000 NG
91700000 92100000 B
92100000 92600000 u:
92600000 94100000 H
94100000 96000000 NH
96000000 97200000 pm
97200000 98500000 sil
