0 2100000 sil
2100000 2800000 B
2800000 3200000 a
3200000 3500000 NH
3500000 4600000 T
4600000 5600000 ia:
5600000 5900000 P
5900000 6800000 M
6800000 8000000 ao
8000000 12000000 K
12000000 12400000 D
12400000 13500000 ear
13500000 14500000 C
14500000 14800000 u
14800000 15800000 M
15800000 16100000 W
16100000 16600000 i
16600000 17000000 N
17000000 17300000 T
17300000 17600000 a
17600000 18300000 M
18300000 18600000 B
18600000 19400000 a
19400000 20100000 NH
20100000 20600000 R
20600000 21500000 a
21500000 25800000 ?
25800000 26200000 NH
26200000 26700000 ix
26700000 27500000 NG
27500000 28100000 D
28100000 29200000 ear
29200000 29900000 K
29900000 30200000 a
30200000 30700000 M
30700000 31900000 S
31900000 33000000 aa:
33000000 33400000 NH
33400000 33900000 NH
33900000 34700000 ek
34700000 35000000 W
35000000 35900000 S
35900000 36200000 aa:
36200000 36500000 R
36500000 37300000 aa
37300000 37600000 ?
37600000 37900000 M
37900000 38200000 o
38200000 38700000 NH
38700000 39700000 T
39700000 40700000 i:
40700000 41000000 ?
41000000 42000000 oo
42000000 42800000 S
42800000 43100000 T
43100000 43700000 R
43700000 44000000 aa:
44000000 45000000 L
45000000 46900000 i:
46900000 52800000 pm
52800000 53600000 NH
53600000 54600000 eak
54600000 55100000 ?
55100000 55400000 NH
55400000 56300000 ix
56300000 56700000 NG
56700000 57000000 ?
57000000 58000000 aa:
58000000 58500000 C
58500000 59100000 R
59100000 60200000 ear:
60200000 60700000 NH
60700000 61800000 P
61800000 62800000 i:
62800000 63600000 C
63600000 64000000 a
64000000 64300000 M
64300000 65000000 NH
65000000 65300000 e
65300000 65600000 H
65600000 66800000 D
66800000 67100000 ek
67100000 68800000 NG
68800000 73900000 C
73900000 74400000 ia
74400000 75500000 C
75500000 76500000 R
76500000 77100000 ek:
77100000 77800000 NH
77800000 78100000 ?
78100000 78400000 a
78400000 78700000 M
78700000 79700000 P
79700000 80800000 i:
80800000 81200000 ?
81200000 82000000 oo
82000000 82800000 S
82800000 83100000 T
83100000 83700000 R
83700000 84000000 aa:
84000000 84900000 L
84900000 86500000 i:
86500000 96000000 pm
96000000 96800000 NH
96800000 97800000 eak
97800000 98100000 ?
98100000 98400000 ?
98400000 99500000 aa:
99500000 100300000 C
100300000 100800000 T
100800000 101100000 o:
101100000 102100000 T
102100000 102800000 uor
102800000 103300000 L
103300000 104200000 B
104200000 105000000 aa:
105000000 105400000 NH
105400000 106300000 K
106300000 106700000 aa:
106700000 107600000 D
107600000 108600000 oo
108600000 109500000 P
109500000 109900000 i
109900000 111400000 S
111400000 111900000 e:
111900000 112400000 H
112400000 113500000 P
113500000 114600000 i:
114600000 115400000 H
115400000 116900000 aa:
116900000 117300000 NG
117300000 117800000 D
117800000 118300000 aa:
118300000 119100000 L
119100000 120100000 i:
120100000 120800000 H
120800000 121400000 aa:
121400000 123000000 B
123000000 128900000 aa
128900000 130300000 P
130300000 130900000 R
130900000 131200000 a:
131200000 132400000 S
132400000 132800000 ek
132800000 133600000 NH
133600000 134500000 B
134500000 134900000 ear
134900000 135700000 NH
135700000 136500000 eak
136500000 136900000 ?
136900000 138000000 C
138000000 138600000 a
138600000 139300000 NG
139300000 140500000 T
140500000 141100000 e
141100000 141400000 N
141400000 142500000 NH
142500000 143000000 ek
143000000 143300000 W
143300000 143600000 W
143600000 144200000 ia:
144200000 145000000 T
145000000 145400000 TH
145400000 146000000 ou
146000000 146300000 ?
146300000 146600000 aa
146600000 146900000 ?
146900000 147400000 NH
147400000 147800000 u
147800000 149100000 S
149100000 149800000 aa:
149800000 150100000 W
150100000 150400000 aa
150400000 150700000 ?
150700000 151200000 R
151200000 152700000 i:
152700000 163800000 pm
163800000 164200000 T
164200000 165500000 i:
165500000 166200000 NH
166200000 166500000 u
166500000 173000000 H
173000000 173500000 M
173500000 174500000 ia
174500000 174800000 NH
174800000 175700000 T
175700000 176000000 u
176000000 176400000 M
176400000 177300000 NH
177300000 177700000 i
177700000 178000000 N
178000000 179000000 C
179000000 179400000 ia
179400000 180600000 C
180600000 181700000 R
181700000 182200000 ek:
182200000 182600000 NH
182600000 182900000 NH
182900000 183300000 ix
183300000 183600000 NG
183600000 183900000 ?
183900000 184400000 aa
184400000 184900000 T
184900000 185200000 TH
185200000 185500000 aa
185500000 185800000 ?
185800000 186500000 B
186500000 187100000 a
187100000 187400000 T
187400000 187800000 L
187800000 188100000 ?
188100000 189500000 a:
189500000 190200000 L
190200000 190500000 ?
190500000 192700000 a:
192700000 193500000 D
193500000 193800000 ea:
193800000 194100000 L
194100000 194500000 NH
194500000 195200000 eak
195200000 195500000 ?
195500000 196500000 C
196500000 197000000 oo
197000000 197400000 L
197400000 198300000 C
198300000 198600000 e
198600000 199500000 T
199500000 200100000 T
200100000 200900000 e
200900000 201300000 N
201300000 203000000 pm
203000000 204000000 sil
