0 1900000 sil
1900000 2500000 ?
2500000 3700000 a:
3700000 4900000 K
4900000 5500000 u
5500000 6700000 NH
6700000 8300000 pm
8300000 8900000 KH
8900000 9200000 N
9200000 10100000 u
10100000 10700000 M
10700000 11200000 M
11200000 12400000 ia
12400000 12700000 NH
12700000 13000000 ?
13000000 14200000 aa:
14200000 14800000 R
14800000 15400000 a
15400000 16300000 M
16300000 16700000 KH
16700000 17300000 NH
17300000 17800000 ou
17800000 18300000 NG
18300000 19200000 K
19200000 20500000 aa:
20500000 20800000 ?
20800000 21900000 aa:
21900000 22200000 NH
22200000 23200000 S
23200000 23500000 ear:
23500000 23800000 W
23800000 24900000 PH
24900000 25200000 ek
25200000 25700000 W
25700000 26500000 L
26500000 26800000 ?
26800000 28300000 a:
28300000 28800000 L
28800000 29100000 ?
29100000 31300000 a:
31300000 32000000 D
32000000 32500000 ao
32500000 32900000 J
32900000 33800000 H
33800000 34700000 ea:
34700000 35400000 T
35400000 36400000 TH
36400000 38800000 aa:
38800000 43200000 KH
43200000 43600000 N
43600000 44500000 u
44500000 45500000 M
45500000 45800000 NH
45800000 46400000 ix
46400000 47200000 NG
47200000 47500000 M
47500000 48500000 ia
48500000 48900000 NH
48900000 50100000 P
50100000 51100000 e:
51100000 52000000 L
52000000 52300000 W
52300000 52800000 e:
52800000 53100000 L
53100000 54300000 ia
54300000 55200000 T
55200000 55500000 u
55500000 55800000 M
55800000 57000000 NH
57000000 58100000 e:
58100000 58900000 M
58900000 59600000 uor
59600000 59900000 J
59900000 60700000 C
60700000 61000000 a
61000000 61600000 M
61600000 62300000 NH
62300000 63700000 uor
63700000 69700000 NH
69700000 70400000 NH
70400000 71100000 ek
71100000 71500000 W
71500000 72600000 KH
72600000 73800000 ea:
73800000 74600000 KH
74600000 75200000 aa:
75200000 76000000 NG
76000000 76300000 M
76300000 76600000 u
76600000 77400000 K
77400000 78100000 NH
78100000 79300000 i
79300000 79700000 H
79700000 88900000 pm
88900000 89500000 W
89500000 90800000 ia
90800000 92100000 H
92100000 93100000 aa
93100000 93400000 ?
93400000 94100000 B
94100000 94700000 e
94700000 95400000 J
95400000 95900000 D
95900000 96800000 oo
96800000 97300000 C
97300000 97900000 C
97900000 98300000 ia
98300000 99500000 J
99500000 100800000 u:
100800000 101300000 NH
101300000 102300000 aa
102300000 102600000 H
102600000 102900000 M
102900000 103500000 o:
103500000 104000000 ?
104000000 104600000 H
104600000 106000000 ear
106000000 106400000 J
106400000 107200000 T
107200000 107500000 u
107500000 108300000 M
108300000 108700000 R
108700000 109500000 ia:
109500000 110000000 M
110000000 110300000 M
110300000 111300000 ia
111300000 111700000 NH
111700000 112800000 P
112800000 113500000 e:
113500000 114100000 L
114100000 114500000 ?
114500000 116400000 aa:
116400000 117000000 NH
117000000 118100000 pm
118100000 119800000 sil
