0 1600000 sil
1600000 2300000 KH
2300000 2900000 NH
2900000 3600000 ou
3600000 4300000 NG
4300000 4800000 P
4800000 5300000 R
5300000 5600000 a:
5600000 6600000 T
6600000 7700000 ee
7700000 8000000 H
8000000 8700000 M
8700000 10000000 uor
10000000 12600000 J
12600000 13400000 D
13400000 14300000 ea:
14300000 14600000 L
14600000 15300000 B
15300000 15800000 R
15800000 16100000 a:
16100000 17200000 C
17200000 17900000 ia
17900000 19200000 C
19200000 19800000 o:
19800000 20200000 NH
20200000 21500000 TH
21500000 21800000 W
21800000 22600000 ek:
22600000 23700000 K
23700000 24700000 aa:
24700000 25500000 NG
25500000 26500000 ia
26500000 27900000 TH
27900000 28500000 NG
28500000 29100000 o
29100000 34300000 NH
34300000 34600000 B
34600000 35400000 R
35400000 35700000 ek
35700000 36200000 NG
36200000 36800000 B
36800000 37300000 R
37300000 38300000 ea:
38300000 38600000 N
38600000 39600000 TH
39600000 39900000 W
39900000 40500000 ek:
40500000 41800000 K
41800000 42900000 aa:
42900000 43500000 M
43500000 43800000 i
43800000 44200000 NH
44200000 45100000 CH
45100000 45600000 o
45600000 46000000 P
46000000 46800000 S
46800000 47100000 a
47100000 47700000 M
47700000 48300000 R
48300000 50100000 aa:
50100000 54000000 ?
54000000 56000000 C
56000000 56700000 a
56700000 57600000 NG
57600000 58500000 D
58500000 59100000 ek
59100000 60500000 NG
60500000 65200000 C
65200000 65900000 a
65900000 66600000 NG
66600000 67900000 KH
67900000 69500000 ek:
69500000 72600000 N
72600000 73800000 S
73800000 74200000 M
74200000 74700000 aa
74700000 75200000 ?
75200000 76300000 C
76300000 76700000 e
76700000 77400000 T
77400000 77700000 R
77700000 78500000 ear:
78500000 79000000 NH
79000000 79800000 K
79800000 80100000 R
80100000 80400000 u
80400000 81300000 P
81300000 82100000 J
82100000 83900000 aa:
83900000 85100000 NG
85100000 90300000 N
90300000 91200000 aa
91200000 91800000 M
91800000 93200000 CH
93200000 93500000 NG
93500000 94800000 aa
94800000 95300000 N
95300000 95900000 NH
95900000 96800000 ix
96800000 97100000 NG
97100000 98100000 PH
98100000 98400000 ek
98400000 99300000 K
99300000 100300000 CH
100300000 100600000 NG
100600000 101500000 aa
101500000 102700000 N
102700000 105400000 T
105400000 106800000 ea:
106800000 107300000 M
107300000 107700000 i
107700000 108000000 NH
108000000 109200000 C
109200000 109500000 e
109500000 109800000 H
109800000 110600000 S
110600000 111300000 K
111300000 111800000 a
111800000 112300000 P
112300000 113100000 S
113100000 113800000 K
113800000 116000000 a
116000000 116800000 L
116800000 121300000 R
121300000 122100000 o:
122100000 122700000 ?
122700000 123300000 C
123300000 123600000 a
123600000 123900000 M
123900000 124800000 NH
124800000 126400000 oo
126400000 126700000 L
126700000 127100000 NH
127100000 127700000 ix
127700000 128100000 NG
128100000 128800000 C
128800000 129100000 a
129100000 129400000 M
129400000 130300000 NH
130300000 131500000 aa:
131500000 132000000 J
132000000 132400000 J
132400000 133100000 aa:
133100000 133400000 NG
133400000 134400000 C
134400000 135400000 R
135400000 136500000 ek:
136500000 137200000 NH
137200000 139100000 pm
139100000 140100000 sil
