0 2000000 sil
2000000 2400000 K
2400000 3000000 R
3000000 3900000 ao
3900000 4300000 J
4300000 5100000 P
5100000 6000000 i:
6000000 6600000 KH
6600000 7000000 N
7000000 8000000 u
8000000 9100000 M
9100000 9600000 B
9600000 10400000 aa:
10400000 10700000 NH
10700000 11700000 PH
11700000 12000000 ek
12000000 12700000 K
12700000 13600000 T
13600000 14000000 ix
14000000 14800000 K
14800000 15300000 PH
15300000 15600000 L
15600000 16600000 ee:
16600000 18300000 CH
18300000 20900000 ek:
20900000 24500000 D
24500000 25400000 ea:
25400000 25700000 L
25700000 27100000 K
27100000 28300000 e:
28300000 28600000 ?
28600000 30000000 ao
30000000 30400000 J
30400000 31100000 M
31100000 31900000 o:
31900000 32200000 ?
32200000 32700000 KH
32700000 33000000 N
33000000 33700000 u
33700000 34700000 M
34700000 35200000 R
35200000 36300000 uor
36300000 37300000 C
37300000 37600000 pt
37600000 39700000 KH
39700000 40100000 N
40100000 41100000 u
41100000 42100000 M
42100000 42900000 K
42900000 43500000 a:
43500000 44300000 B
44300000 45100000 aa:
45100000 45500000 NH
45500000 46500000 S
46500000 46800000 a
46800000 47500000 NH
47500000 48000000 L
48000000 49000000 a
49000000 49500000 P
49500000 53400000 pm
53400000 54000000 P
54000000 54700000 e:
54700000 55000000 L
55000000 55500000 D
55500000 56100000 ea:
56100000 56400000 L
56400000 56900000 KH
56900000 57300000 N
57300000 58100000 u
58100000 58800000 M
58800000 59600000 PH
59600000 60300000 N
60300000 61100000 eak
61100000 61600000 ?
61600000 62500000 L
62500000 64300000 ear
64300000 65400000 NG
65400000 67400000 K
67400000 68000000 aa:
68000000 69000000 B
69000000 70000000 oo
70000000 70400000 P
70400000 71500000 L
71500000 71800000 u
71800000 72700000 J
72700000 73300000 NH
73300000 73900000 ix
73900000 74300000 NG
74300000 74800000 K
74800000 75100000 aa:
75100000 76500000 T
76500000 77500000 aa:
77500000 78100000 P
78100000 78600000 R
78600000 79000000 o:
79000000 79700000 B
79700000 80300000 a
80300000 80700000 H
80700000 81200000 KH
81200000 81700000 N
81700000 82500000 u
82500000 83700000 M
83700000 84500000 B
84500000 85200000 aa:
85200000 86000000 NH
86000000 86800000 B
86800000 87300000 aa
87300000 87900000 T
87900000 88400000 T
88400000 88800000 ek
88800000 89100000 W
89100000 90100000 H
90100000 91700000 ear
91700000 92600000 J
92600000 93500000 pm
93500000 95200000 sil
