0 2200000 sil
2200000 2500000 ?
2500000 3800000 a:
3800000 4900000 K
4900000 5200000 u
5200000 6100000 NH
6100000 7000000 K
7000000 7300000 aa
7300000 8200000 N
8200000 8500000 N
8500000 9500000 aa:
9500000 10500000 H
10500000 11500000 aa:
11500000 12500000 J
12500000 13200000 aa:
13200000 14600000 S
14600000 16500000 i:
16500000 19000000 pm
19000000 19500000 KH
19500000 20000000 N
20000000 21000000 u
21000000 22300000 M
22300000 23000000 D
23000000 23500000 i:
23500000 24100000 K
24100000 24900000 S
24900000 25900000 K
25900000 27700000 oo
27700000 28400000 NH
28400000 31800000 pm
31800000 32500000 NH
32500000 33500000 i
33500000 33800000 H
33800000 34700000 C
34700000 35200000 ia
35200000 36400000 K
36400000 37400000 aa:
37400000 37800000 T
37800000 38700000 K
38700000 39800000 aa:
39800000 40900000 NG
40900000 41600000 ia
41600000 42900000 C
42900000 43600000 aa
43600000 44100000 H
44100000 44700000 R
44700000 45200000 o:
45200000 45800000 B
45800000 46400000 a
46400000 46900000 H
46900000 47300000 KH
47300000 47700000 N
47700000 48600000 u
48600000 50300000 M
50300000 54100000 P
54100000 54600000 ou
54600000 54900000 NH
54900000 56000000 T
56000000 57800000 ea:
57800000 58400000 KH
58400000 58800000 N
58800000 59800000 u
59800000 60700000 M
60700000 61700000 T
61700000 62500000 ek:
62500000 63000000 P
63000000 63500000 T
63500000 64100000 ea:
64100000 65100000 T
65100000 65700000 R
65700000 66000000 oo
66000000 66700000 W
66700000 67400000 B
67400000 68300000 aa:
68300000 68700000 NH
68700000 70000000 K
70000000 70900000 e:
70900000 72000000 T
72000000 73100000 ea:
73100000 73400000 NG
73400000 74500000 T
74500000 75400000 aa
75400000 76200000 NG
76200000 77500000 C
77500000 78100000 ia
78100000 78400000 ?
78400000 79000000 aa
79000000 79300000 ?
79300000 80100000 NH
80100000 80400000 u
80400000 81400000 B
81400000 82100000 R
82100000 82400000 a:
82400000 83800000 TH
83800000 84600000 ia
84600000 85200000 NH
85200000 86200000 PH
86200000 86600000 NH
86600000 87600000 ee:
87600000 87900000 K
87900000 88500000 NH
88500000 89300000 ia:
89300000 89900000 M
89900000 91300000 C
91300000 92100000 e:
92100000 92900000 N
92900000 94700000 pm
94700000 95600000 sil
