0 2100000 sil
2100000 2700000 C
2700000 3100000 a
3100000 3400000 M
3400000 4100000 NH
4100000 5100000 a:
5100000 5400000 T
5400000 5900000 L
5900000 7000000 aa:
7000000 7400000 NH
7400000 8200000 K
8200000 8800000 R
8800000 9100000 ou
9100000 9900000 NG
9900000 10600000 KH
10600000 11500000 ea:
11500000 12500000 R
12500000 13800000 e:
13800000 14100000 ?
14100000 15000000 ee:
15000000 16400000 PH
16400000 18100000 a:
18100000 21400000 T
21400000 21800000 NH
21800000 22200000 ix
22200000 22900000 NG
22900000 24100000 C
24100000 25000000 u:
25000000 25300000 NH
25300000 25600000 NH
25600000 26400000 eak
26400000 26700000 ?
26700000 27700000 T
27700000 28400000 ek
28400000 28700000 W
28700000 29600000 S
29600000 30300000 TH
30300000 31200000 aa:
31200000 32100000 NH
32100000 33100000 i:
33100000 33400000 H
33400000 33900000 K
33900000 34700000 R
34700000 35200000 ee:
35200000 35700000 NH
35700000 36800000 S
36800000 37100000 ek
37100000 38000000 NH
38000000 38800000 T
38800000 42000000 L
42000000 47300000 R
47300000 48400000 ix
48400000 49800000 T
49800000 50600000 ek
50600000 50900000 W
50900000 51900000 C
51900000 52200000 a
52200000 52500000 M
52500000 53000000 NH
53000000 54000000 a:
54000000 54300000 T
54300000 54700000 L
54700000 55600000 aa:
55600000 56000000 NH
56000000 56900000 K
56900000 57300000 R
57300000 57600000 ou
57600000 58200000 NG
58200000 59600000 PH
59600000 60600000 a:
60600000 61100000 T
61100000 61600000 ?
61600000 62200000 oo
62200000 63400000 S
63400000 63900000 oo
63900000 64500000 R
64500000 65400000 i:
65400000 66800000 TH
66800000 68600000 i:
68600000 73600000 pm
73600000 73900000 H
73900000 75700000 ear
75700000 76000000 J
76000000 77100000 P
77100000 77700000 uor
77700000 78600000 K
78600000 79300000 K
79300000 80200000 e:
80200000 80500000 NH
80500000 81100000 ix
81100000 81500000 NG
81500000 82200000 PH
82200000 82900000 C
82900000 83800000 ia:
83800000 84100000 P
84100000 85100000 S
85100000 85400000 e:
85400000 86000000 W
86000000 87100000 aa:
87100000 88300000 T
88300000 88800000 ek
88800000 89100000 W
89100000 89900000 S
89900000 90200000 a
90200000 90500000 NH
90500000 91400000 TH
91400000 92100000 aa:
92100000 93300000 K
93300000 94100000 ia
94100000 95100000 B
95100000 95800000 uor
95800000 96300000 NH
96300000 96700000 PH
96700000 97600000 S
97600000 98200000 e:
98200000 98500000 N
98500000 98900000 PH
98900000 99600000 S
99600000 100000000 e:
100000000 100800000 N
100800000 101600000 KH
101600000 102200000 NH
102200000 103800000 ia
103800000 110300000 pm
110300000 110900000 T
110900000 111500000 ek
111500000 111800000 W
111800000 112100000 H
112100000 112800000 K
112800000 113600000 R
113600000 114400000 ee:
114400000 114700000 NH
114700000 115900000 S
115900000 116200000 ek
116200000 117000000 NH
117000000 117800000 TH
117800000 118600000 R
118600000 120200000 o:
120200000 120900000 L
120900000 125500000 NH
125500000 126400000 ix
126400000 126900000 NG
126900000 127900000 T
127900000 128700000 ek
128700000 129100000 W
129100000 129600000 K
129600000 129900000 a
129900000 130500000 M
130500000 131200000 P
131200000 131600000 o
131600000 132400000 NG
132400000 133600000 PH
133600000 135500000 ea:
135500000 137800000 pm
137800000 138700000 sil
