0 2200000 sil
2200000 2900000 C
2900000 3500000 ia
3500000 4800000 TH
4800000 5700000 ia:
5700000 6400000 M
6400000 7500000 D
7500000 8900000 aa:
8900000 9200000 NH
9200000 9900000 i
9900000 10600000 T
10600000 11100000 T
11100000 12500000 ee
12500000 12800000 H
12800000 13100000 ?
13100000 14800000 e:
14800000 16000000 K
16000000 17000000 ix:
17000000 17800000 L
17800000 18200000 ?
18200000 19500000 a:
19500000 20200000 P
20200000 20700000 R
20700000 21000000 a:
21000000 22400000 S
22400000 25100000 ear
25100000 25800000 NH
25800000 26100000 i
26100000 29400000 T
29400000 31000000 T
31000000 32400000 ee
32400000 32700000 H
32700000 33400000 B
33400000 35000000 i:
35000000 36000000 K
36000000 37000000 ix:
37000000 37900000 L
37900000 38200000 ?
38200000 41700000 a:
41700000 42000000 NH
42000000 42300000 i
42300000 45300000 T
45300000 46600000 T
46600000 47400000 ee
47400000 47700000 H
47700000 49000000 S
49000000 50300000 i:
50300000 50900000 B
50900000 51200000 a
51200000 52000000 NG
52000000 53500000 K
53500000 56300000 uor
56300000 56600000 NH
56600000 56900000 i
56900000 59600000 T
59600000 61400000 T
61400000 62800000 ee
62800000 63100000 H
63100000 63800000 D
63800000 65300000 i:
65300000 65800000 KH
65800000 67200000 S
67200000 69200000 ao
69200000 69500000 J
69500000 69800000 NH
69800000 70600000 i
70600000 72900000 T
72900000 74400000 T
74400000 75800000 ee
75800000 76200000 H
76200000 77000000 ?
77000000 77300000 e:
77300000 77700000 W
77700000 79300000 TH
79300000 80000000 L
80000000 80900000 eak
80900000 82200000 ?
82200000 82500000 NH
82500000 82800000 ix
82800000 83100000 NG
83100000 83400000 NH
83400000 83700000 i
83700000 84200000 T
84200000 84500000 T
84500000 84800000 ee
84800000 90700000 H
90700000 91600000 ?
91600000 92000000 aa:
92000000 96400000 J
96400000 98600000 M
98600000 98900000 i
98900000 99300000 NH
99300000 100200000 K
100200000 100500000 R
100500000 100800000 u
100800000 101500000 P
101500000 102100000 C
102100000 102400000 a
102400000 102700000 M
102700000 103700000 NH
103700000 104900000 uor
104900000 105800000 NH
105800000 109800000 pm
109800000 111100000 S
111100000 111900000 aa:
111900000 112200000 L
112200000 114000000 aa:
114000000 115100000 KH
115100000 115500000 L
115500000 116600000 aa
116600000 117100000 H
117100000 117400000 B
117400000 118300000 R
118300000 119100000 ek:
119100000 120300000 S
120300000 120600000 aa
120600000 121100000 N
121100000 121400000 N
121400000 122600000 aa:
122600000 123800000 B
123800000 125000000 oo
125000000 125300000 K
125300000 125900000 NH
125900000 126400000 ix
126400000 127000000 NG
127000000 128000000 S
128000000 128300000 aa
128300000 128800000 N
128800000 129100000 N
129100000 130100000 aa:
130100000 131100000 D
131100000 132200000 a:
132200000 132500000 ?
132500000 133300000 L
133300000 134100000 ek:
134100000 134700000 NH
134700000 135300000 i
135300000 136000000 T
136000000 136500000 T
136500000 137800000 ee
137800000 138100000 H
138100000 139000000 pm
139000000 140500000 sil
