0 2100000 sil
2100000 2500000 ?
2500000 2900000 e
2900000 3900000 J
3900000 4300000 L
4300000 4600000 ou
4600000 5100000 W
5100000 6200000 NH
6200000 7600000 i
7600000 10200000 H
10200000 10900000 W
10900000 12200000 ia
12200000 13600000 C
13600000 14200000 ia
14200000 15600000 W
15600000 16400000 ee
16400000 17200000 NH
17200000 17500000 R
17500000 17900000 o:
17900000 18600000 B
18600000 19100000 a
19100000 19600000 H
19600000 19900000 KH
19900000 20200000 N
20200000 21300000 u
21300000 22500000 M
22500000 29500000 pm
29500000 30100000 KH
30100000 30500000 N
30500000 31300000 u
31300000 32300000 M
32300000 33400000 S
33400000 34100000 oo
34100000 34600000 M
34600000 35900000 T
35900000 37500000 ou:
37500000 40800000 H
40800000 41300000 D
41300000 42000000 ea:
42000000 42500000 L
42500000 43100000 ?
43100000 44500000 aa:
44500000 44800000 C
44800000 45100000 NH
45100000 45700000 ix
45700000 46200000 NG
46200000 47300000 TH
47300000 47600000 W
47600000 48700000 ek:
48700000 49000000 ?
49000000 50400000 ao
50400000 50800000 J
50800000 51100000 ?
51100000 51800000 e
51800000 52600000 W
52600000 53300000 aa
53300000 54200000 NH
54200000 54500000 R
54500000 55000000 o:
55000000 55500000 B
55500000 56200000 a
56200000 56500000 H
56500000 57100000 NH
57100000 57700000 eak
57700000 58100000 ?
58100000 59500000 TH
59500000 59900000 NG
59900000 60700000 o
60700000 61800000 NH
61800000 67600000 P
67600000 68100000 ou
68100000 68500000 NH
68500000 69600000 T
69600000 71700000 ea:
71700000 72500000 KH
72500000 72900000 N
72900000 73700000 u
73700000 74400000 M
74400000 75300000 S
75300000 75600000 a
75600000 76300000 NG
76300000 77100000 KH
77100000 77500000 ix
77500000 78300000 M
78300000 79300000 TH
79300000 81300000 aa:
81300000 81900000 NH
81900000 82400000 eak
82400000 82900000 ?
82900000 83200000 NH
83200000 83700000 ix
83700000 84300000 NG
84300000 85300000 C
85300000 86100000 oo
86100000 86400000 L
86400000 87400000 C
87400000 87800000 e
87800000 88500000 T
88500000 89000000 W
89000000 91300000 ia
91300000 93500000 pm
93500000 94200000 sil
