0 2200000 sil
2200000 3100000 NH
3100000 3900000 ek
3900000 4400000 W
4400000 5700000 P
5700000 6300000 e:
6300000 6600000 L
6600000 7600000 J
7600000 8200000 u
8200000 10500000 P
10500000 11600000 NH
11600000 11900000 e:
11900000 12200000 J
12200000 13500000 TH
13500000 13800000 NG
13800000 14400000 aa
14400000 14900000 J
14900000 15900000 M
15900000 16300000 u
16300000 17100000 NH
17100000 18000000 C
18000000 18900000 oo
18900000 19200000 L
19200000 20600000 CH
20600000 21000000 NH
21000000 21600000 aa
21600000 22000000 M
22000000 23000000 TH
23000000 24100000 M
24100000 24800000 e
24800000 26100000 J
26100000 32000000 P
32000000 32900000 uor
32900000 33200000 K
33200000 33700000 J
33700000 34800000 ek:
34800000 35200000 NG
35200000 35700000 B
35700000 36600000 a:
36600000 37100000 R
37100000 37600000 e
37600000 38800000 PH
38800000 39800000 ou:
39800000 40100000 K
40100000 40900000 M
40900000 41800000 i:
41800000 42500000 B
42500000 42800000 a
42800000 43600000 NH
43600000 44400000 D
44400000 47500000 ear
47500000 49500000 R
49500000 50100000 o:
50100000 50500000 NG
50500000 51500000 C
51500000 52100000 aa
52100000 52600000 M
52600000 53600000 T
53600000 53900000 uor
53900000 54200000 H
54200000 55100000 S
55100000 55400000 aa
55400000 55700000 ?
55700000 56100000 NH
56100000 57800000 aa:
57800000 58300000 NH
58300000 58800000 ix
58800000 59100000 NG
59100000 60200000 S
60200000 60900000 D
60900000 61500000 aa
61500000 61900000 P
61900000 62800000 S
62800000 63100000 a
63100000 63800000 M
63800000 64400000 L
64400000 65400000 e:
65400000 65700000 NG
65700000 67500000 C
67500000 68700000 uor
68700000 70400000 NG
70400000 73200000 T
73200000 74200000 aa:
74200000 74800000 M
74800000 75400000 K
75400000 75700000 aa
75700000 76000000 N
76000000 77100000 C
77100000 77600000 a
77600000 78100000 ?
78100000 79100000 T
79100000 79600000 u:
79600000 80100000 R
80100000 81400000 T
81400000 82000000 uor
82000000 82300000 H
82300000 82700000 B
82700000 83000000 a
83000000 83900000 NH
83900000 84500000 D
84500000 87600000 ear
87600000 88100000 D
88100000 91000000 ea:
91000000 93700000 L
93700000 94600000 B
94600000 94900000 a
94900000 95700000 NH
95700000 96300000 L
96300000 97400000 er:
97400000 98900000 C
98900000 99500000 e:
99500000 100000000 N
100000000 100900000 P
100900000 101600000 i:
101600000 102600000 T
102600000 103900000 i:
103900000 104500000 W
104500000 105500000 ia:
105500000 106000000 T
106000000 106300000 ?
106300000 107600000 aa:
107600000 107900000 R
107900000 109100000 aa:
109100000 109400000 M
109400000 110200000 NH
110200000 111400000 ia
111400000 112300000 NH
112300000 114700000 ia
114700000 116700000 C
116700000 117700000 ia
117700000 118900000 S
118900000 119200000 aa
119200000 120200000 N
120200000 120500000 N
120500000 122000000 aa:
122000000 123000000 NH
123000000 123300000 e:
123300000 123900000 J
123900000 125000000 K
125000000 126200000 aa:
126200000 126900000 B
126900000 127200000 aa
127200000 127700000 N
127700000 128800000 C
128800000 129400000 a
129400000 130000000 P
130000000 131000000 CH
131000000 131300000 NH
131300000 132100000 aa
132100000 132600000 M
132600000 133800000 C
133800000 134700000 aa
134700000 135400000 H
135400000 136300000 pm
136300000 137300000 sil
