0 2200000 sil
2200000 2800000 W
2800000 4300000 ia
4300000 5300000 K
5300000 6000000 ix:
6000000 7100000 C
7100000 7900000 ia
7900000 8600000 K
8600000 9000000 R
9000000 9300000 a:
9300000 10400000 S
10400000 10900000 uor
10900000 11700000 NG
11700000 12000000 P
12000000 12300000 ia
12300000 12600000 NH
12600000 13000000 e
13000000 13400000 C
13400000 13900000 C
13900000 14200000 eak
14200000 14500000 ?
14500000 15200000 K
15200000 16300000 a
16300000 16900000 M
16900000 17600000 NH
17600000 18200000 ix
18200000 18900000 NG
18900000 19200000 ?
19200000 19500000 u
19500000 20800000 S
20800000 21400000 aa:
21400000 21700000 H
21700000 22000000 aa
22000000 22300000 ?
22300000 23200000 K
23200000 23900000 aa
23900000 24600000 M
24600000 24900000 ?
24900000 25600000 a
25600000 26200000 NH
26200000 26700000 T
26700000 27000000 aa
27000000 27300000 ?
27300000 27600000 R
27600000 27900000 aa
27900000 28200000 ?
28200000 29400000 C
29400000 30600000 ia
30600000 30900000 T
30900000 36700000 pm
36700000 37900000 NH
37900000 38200000 u
38200000 39500000 H
39500000 40600000 C
40600000 41000000 ia
41000000 42100000 M
42100000 43100000 u:
43100000 43600000 L
43600000 43900000 eak
43900000 44200000 ?
44200000 44900000 H
44900000 46300000 ea:
46300000 47200000 T
47200000 47900000 D
47900000 48800000 ea:
48800000 50900000 L
50900000 53300000 W
53300000 54500000 ia
54500000 55600000 B
55600000 56600000 aa:
56600000 57100000 NH
57100000 57700000 B
57700000 58000000 a
58000000 58300000 NG
58300000 59400000 K
59400000 60700000 ear
60700000 62200000 NH
62200000 64000000 P
64000000 64700000 ia
64700000 65200000 NH
65200000 65500000 e
65500000 66100000 C
66100000 66500000 C
66500000 66800000 eak
66800000 67100000 ?
67100000 67800000 K
67800000 68500000 a
68500000 68900000 M
68900000 69400000 ?
69400000 70200000 a
70200000 70700000 NH
70700000 71100000 T
71100000 71400000 aa
71400000 71700000 ?
71700000 72000000 R
72000000 72300000 aa
72300000 72600000 ?
72600000 73800000 C
73800000 74500000 ia
74500000 75000000 T
75000000 75600000 B
75600000 75900000 a
75900000 76200000 NH
76200000 77300000 T
77300000 78000000 ia:
78000000 78500000 P
78500000 79000000 P
79000000 79400000 i:
79400000 80400000 S
80400000 80700000 a
80700000 81100000 NG
81100000 82100000 K
82100000 82500000 R
82500000 83800000 ia
83800000 84400000 M
84400000 85300000 pm
85300000 86700000 sil
