0 2200000 sil
2200000 3100000 C
3100000 3700000 ia
3700000 4400000 D
4400000 4700000 a
4700000 5600000 M
5600000 6400000 B
6400000 8000000 oo
8000000 9300000 NG
9300000 11900000 C
11900000 12900000 oo
12900000 13200000 L
13200000 14200000 T
14200000 14800000 ek
14800000 15100000 W
15100000 15900000 T
15900000 16700000 R
16700000 17500000 a
17500000 18100000 NG
18100000 18400000 NH
18400000 19200000 ek
19200000 20000000 W
20000000 20300000 PH
20300000 21000000 L
21000000 21800000 ou
21800000 22400000 K
22400000 23300000 L
23300000 23600000 e:
23600000 23900000 K
23900000 24800000 P
24800000 25300000 R
25300000 25600000 aa
25600000 26200000 M
26200000 27000000 M
27000000 28100000 uor
28100000 28600000 J
28600000 30000000 R
30000000 31200000 ix
31200000 32200000 P
32200000 32600000 R
32600000 32900000 aa
32900000 33500000 M
33500000 34900000 P
34900000 36800000 i:
36800000 37100000 R
37100000 37400000 o:
37400000 40000000 H
40000000 42700000 oo
42700000 43300000 T
43300000 44000000 T
44000000 44800000 ia:
44800000 45100000 L
45100000 46100000 T
46100000 46800000 ea:
46800000 47600000 NH
47600000 48300000 eak
48300000 48600000 ?
48600000 49300000 M
49300000 49700000 o:
49700000 50000000 ?
50000000 50800000 D
50800000 51600000 a
51600000 52000000 L
52000000 53000000 PH
53000000 53500000 L
53500000 53800000 oo
53800000 54400000 W
54400000 55700000 TH
55700000 56300000 ou
56300000 57400000 M
57400000 57900000 D
57900000 58700000 ea:
58700000 59000000 L
59000000 59300000 M
59300000 60200000 ia
60200000 60500000 NH
60500000 61800000 CH
61800000 62100000 M
62100000 62700000 uor
62700000 63400000 H
63400000 64200000 TH
64200000 65700000 aa:
65700000 66600000 P
66600000 67400000 R
67400000 68000000 ao
68000000 68900000 T
68900000 70100000 W
70100000 72000000 e:
72000000 81400000 pm
81400000 81900000 B
81900000 82200000 a
82200000 82600000 NH
82600000 83700000 T
83700000 84700000 ia:
84700000 85200000 P
85200000 85900000 M
85900000 86900000 ao
86900000 87500000 K
87500000 88200000 NG
88200000 89100000 ia
89100000 89400000 ?
89400000 90200000 T
90200000 91200000 ek
91200000 91600000 W
91600000 92100000 KH
92100000 92600000 aa:
92600000 93200000 NG
93200000 94100000 S
94100000 95000000 D
95000000 95900000 aa
95900000 97500000 M
97500000 99600000 NH
99600000 100700000 ix
100700000 101000000 NG
101000000 102300000 T
102300000 103200000 ek
103200000 103500000 W
103500000 104400000 T
104400000 104900000 R
104900000 105600000 a
105600000 106300000 NG
106300000 106900000 C
106900000 107400000 ia
107400000 108800000 TH
108800000 109300000 M
109300000 110100000 e
110100000 110400000 J
110400000 110900000 M
110900000 111700000 D
111700000 112600000 a:
112600000 113000000 NG
113000000 114000000 T
114000000 114900000 ear:
114900000 115300000 T
115300000 115900000 P
115900000 116400000 R
116400000 116700000 a:
116700000 117200000 H
117200000 118200000 ea:
118200000 118500000 L
118500000 119600000 C
119600000 120100000 ia
120100000 120700000 D
120700000 121500000 a
121500000 122400000 P
122400000 122800000 PH
122800000 123500000 L
123500000 124300000 ou
124300000 124800000 K
124800000 135399999 pm
135400000 136100000 W
136100000 137300000 ia
137300000 138000000 NH
138000000 138800000 ek
138800000 139100000 W
139100000 140400000 C
140400000 141200000 ia:
141200000 141900000 P
141900000 142600000 TH
142600000 142900000 o:
142900000 143800000 NH
143800000 145000000 ia
145000000 146300000 K
146300000 147800000 ia
147800000 148500000 D
148500000 149300000 ea:
149300000 149600000 L
149600000 151300000 C
151300000 152200000 ia
152200000 152500000 ?
152500000 153100000 aa
153100000 153400000 ?
153400000 154500000 K
154500000 155600000 ia
155600000 156800000 P
156800000 158200000 ia:
158200000 158700000 H
158700000 159800000 CH
159800000 160700000 M
160700000 161400000 uor
161400000 165900000 H
165900000 167200000 TH
167200000 167600000 W
167600000 168100000 ea:
168100000 168800000 NH
168800000 170000000 TH
170000000 171300000 i:
171300000 172100000 S
172100000 173000000 T
173000000 175200000 R
175200000 176800000 i:
176800000 178400000 pm
178400000 179600000 sil
