0 1700000 sil
1700000 2500000 ?
2500000 3200000 e
3200000 3800000 J
3800000 4200000 L
4200000 4500000 ou
4500000 5000000 W
5000000 5800000 NH
5800000 7000000 i
7000000 7800000 H
7800000 8300000 KH
8300000 8800000 N
8800000 9700000 u
9700000 10400000 M
10400000 10800000 M
10800000 11100000 i
11100000 11600000 NH
11600000 12000000 NH
12000000 12700000 ek
12700000 13100000 W
13100000 13800000 PH
13800000 14700000 T
14700000 15500000 eak
15500000 15800000 H
15800000 17000000 T
17000000 19600000 e:
19600000 21000000 pm
21000000 22400000 S
22400000 23400000 oo
23400000 23700000 M
23700000 24300000 PH
24300000 25100000 N
25100000 26300000 ear
26300000 27500000 S
27500000 28600000 aa:
28600000 29900000 T
29900000 30200000 u
30200000 31100000 K
31100000 31500000 B
31500000 31900000 a
31900000 32200000 NH
32200000 33200000 T
33200000 33900000 ia:
33900000 34500000 P
34500000 34900000 P
34900000 35900000 i:
35900000 36500000 L
36500000 37300000 ix:
37300000 38300000 S
38300000 38600000 a
38600000 39100000 M
39100000 39600000 L
39600000 40700000 e:
40700000 41000000 NG
41000000 41400000 R
41400000 43900000 ou:
43900000 44600000 T
44600000 45700000 H
45700000 47000000 ear
47000000 47600000 J
47600000 48000000 KH
48000000 48500000 N
48500000 49300000 u
49300000 50000000 M
50000000 50300000 NH
50300000 50800000 ix
50800000 51200000 NG
51200000 52300000 T
52300000 53800000 u:
53800000 55000000 S
55000000 55700000 aa
55700000 56500000 P
56500000 57000000 T
57000000 57400000 ek
57400000 57700000 W
57700000 58500000 R
58500000 59400000 o:
59400000 59800000 ?
59800000 60500000 NH
60500000 61300000 eak
61300000 61600000 ?
61600000 61900000 ?
61900000 62600000 ao
62600000 62900000 J
62900000 63700000 B
63700000 64600000 aa:
64600000 65000000 NH
65000000 66100000 CH
66100000 67000000 aa
67000000 68200000 P
68200000 68800000 T
68800000 70100000 aa:
70100000 70400000 M
70400000 71200000 T
71200000 72300000 ea:
72300000 72600000 ?
72600000 73500000 aa:
73500000 74200000 C
74200000 74900000 TH
74900000 75200000 W
75200000 75600000 ek:
75600000 76800000 B
76800000 78500000 aa:
78500000 79100000 NH
79100000 80100000 pm
80100000 81600000 sil
