0 2100000 sil
2100000 2500000 ?
2500000 2800000 ek
2800000 3200000 W
3200000 4400000 P
4400000 4800000 u
4800000 5400000 K
5400000 6000000 M
6000000 7200000 D
7200000 9000000 aa:
9000000 9700000 J
9700000 10100000 NH
10100000 10700000 ix
10700000 11100000 NG
11100000 12100000 K
12100000 13200000 oo
13200000 13600000 NH
13600000 14700000 K
14700000 15900000 oo
15900000 16200000 NH
16200000 17200000 TH
17200000 18100000 L
18100000 19000000 ea:
19000000 19300000 N
19300000 19600000 ?
19600000 19900000 a
19900000 20200000 M
20200000 20900000 NH
20900000 22100000 a:
22100000 23200000 K
23200000 23600000 u
23600000 24500000 NH
24500000 25200000 C
25200000 25600000 a
25600000 25900000 M
25900000 26800000 P
26800000 27200000 uor
27200000 27500000 H
27500000 28700000 P
28700000 29000000 R
29000000 29600000 eak
29600000 29900000 H
29900000 31000000 C
31000000 31500000 ia
31500000 32200000 M
32200000 33800000 C
33800000 34600000 aa
34600000 39600000 H
39600000 40200000 D
40200000 40800000 ea:
40800000 41100000 L
41100000 42300000 KH
42300000 43000000 M
43000000 43600000 e:
43600000 43900000 N
43900000 45100000 KH
45100000 45800000 M
45800000 46600000 e:
46600000 46900000 N
46900000 47600000 B
47600000 48500000 aa:
48500000 49100000 NH
49100000 49400000 R
49400000 49900000 i:
49900000 50600000 K
50600000 51300000 TH
51300000 51800000 ou
51800000 52500000 M
52500000 53700000 TH
53700000 54800000 ia:
54800000 55200000 T
55200000 55900000 D
55900000 56500000 a
56500000 56900000 L
56900000 57200000 ?
57200000 57700000 aa:
57700000 59200000 J
59200000 59500000 u
59500000 60500000 T
60500000 61100000 eak
61100000 61800000 NG
61800000 62300000 NH
62300000 62600000 u
62600000 66000000 H
66000000 66400000 P
66400000 66900000 R
66900000 67600000 a:
67600000 68500000 K
68500000 69400000 a:
69400000 69800000 P
69800000 70400000 D
70400000 71200000 ao
71200000 71500000 J
71500000 72500000 S
72500000 72900000 ou
72900000 73400000 W
73400000 73900000 aa
73900000 74400000 T
74400000 74900000 T
74900000 75200000 e
75200000 76400000 PH
76400000 77700000 ia
77700000 78400000 P
78400000 79400000 pm
79400000 80400000 sil
