0 1900000 sil
1900000 2400000 P
2400000 3000000 ou
3000000 3500000 NH
3500000 4600000 T
4600000 7100000 ea:
7100000 8700000 K
8700000 10100000 aa:
10100000 11200000 B
11200000 11800000 a
11800000 12200000 NG
12200000 12900000 B
12900000 13400000 R
13400000 14200000 aa
14200000 14500000 ?
14500000 15200000 B
15200000 15500000 a
15500000 15900000 NH
15900000 17000000 TH
17000000 18100000 ea:
18100000 18600000 M
18600000 19300000 T
19300000 19900000 R
19900000 20200000 oo
20200000 20700000 W
20700000 21600000 B
21600000 22500000 aa:
22500000 22900000 NH
22900000 23200000 T
23200000 23500000 a
23500000 24500000 M
24500000 25300000 R
25300000 25600000 u:
25600000 26500000 W
26500000 27700000 S
27700000 28000000 a
28000000 28800000 M
28800000 29300000 R
29300000 29900000 aa
29900000 30500000 P
30500000 31300000 R
31300000 31600000 o:
31600000 32100000 T
32100000 32900000 PH
32900000 33700000 L
33700000 34600000 ek:
34600000 34900000 NG
34900000 35500000 L
35500000 36200000 i:
36200000 37000000 M
37000000 37800000 i:
37800000 38100000 T
38100000 38400000 ?
38400000 39000000 e
39000000 39500000 C
39500000 40200000 S
40200000 41000000 P
41000000 41700000 R
41700000 42300000 ee
42300000 46900000 H
46900000 47800000 C
47800000 48400000 ia
48400000 49300000 M
49300000 50200000 uor
50200000 50700000 J
50700000 51200000 NH
51200000 51700000 ix
51700000 52100000 NG
52100000 53200000 K
53200000 54300000 aa:
54300000 55400000 K
55400000 56200000 a
56200000 56500000 ?
56500000 57200000 K
57200000 57700000 a
57700000 58100000 NH
58100000 58600000 L
58600000 59700000 ee:
59700000 60000000 N
60000000 60300000 ?
60300000 60700000 a
60700000 61300000 NG
61300000 62300000 K
62300000 62900000 u
62900000 64200000 J
64200000 65100000 T
65100000 65400000 ek
65400000 65700000 W
65700000 66700000 K
66700000 67400000 aa
67400000 68200000 NH
68200000 68800000 K
68800000 69200000 a
69200000 69700000 NH
69700000 70200000 L
70200000 71100000 ee:
71100000 71400000 N
71400000 72600000 T
72600000 73000000 e:
73000000 74000000 S
74000000 75000000 C
75000000 76100000 a:
76100000 76800000 K
76800000 77100000 a
77100000 77700000 M
77700000 79100000 S
79100000 80800000 aa:
80800000 81100000 NH
81100000 81800000 D
81800000 82500000 ea:
82500000 82800000 L
82800000 83200000 M
83200000 84200000 ia
84200000 84500000 NH
84500000 85200000 B
85200000 85700000 R
85700000 86000000 a:
86000000 87400000 C
87400000 88100000 ia
88100000 88700000 B
88700000 89700000 R
89700000 90100000 i
90100000 91300000 J
91300000 92600000 PH
92600000 93800000 ia
93800000 94200000 P
94200000 96100000 pm
96100000 96300000 sil
