0 2100000 sil
2100000 3200000 M
3200000 3900000 o:
3900000 4300000 NH
4300000 4600000 u
4600000 4900000 H
4900000 5200000 M
5200000 5700000 NH
5700000 7200000 ia
7200000 8200000 T
8200000 8600000 ou
8600000 9600000 P
9600000 10100000 T
10100000 11400000 ea:
11400000 11900000 NH
11900000 12300000 D
12300000 13200000 ear
13200000 13800000 M
13800000 14100000 R
14100000 14400000 ix
14400000 14700000 H
14700000 16100000 S
16100000 17000000 e
17000000 18600000 J
18600000 19200000 D
19200000 19500000 ao
19500000 20000000 J
20000000 21800000 PH
21800000 22100000 J
22100000 23000000 uor
23000000 24200000 S
24200000 24500000 a
24500000 25100000 NH
25100000 25400000 L
25400000 25900000 ix
25900000 26500000 K
26500000 27000000 K
27000000 27400000 R
27400000 27700000 a:
27700000 28900000 D
28900000 29600000 aa:
29600000 30400000 H
30400000 30800000 NH
30800000 31500000 ek
31500000 31800000 W
31800000 33000000 T
33000000 34200000 aa:
34200000 35000000 M
35000000 35400000 M
35400000 36500000 ee:
36500000 36800000 K
36800000 37100000 R
37100000 37400000 ix
37400000 37700000 H
37700000 39100000 S
39100000 40000000 e
40000000 45000000 J
45000000 46000000 R
46000000 46500000 uor
46500000 47300000 C
47300000 47900000 S
47900000 48200000 a:
48200000 49600000 S
49600000 50400000 e:
50400000 51500000 K
51500000 52700000 aa:
52700000 53600000 B
53600000 54200000 uor
54200000 54700000 NG
54700000 55900000 S
55900000 56600000 uor
56600000 56900000 NG
56900000 57400000 R
57400000 57800000 o:
57800000 58500000 B
58500000 58800000 a
58800000 59100000 H
59100000 60200000 P
60200000 60800000 uor
60800000 61700000 K
61700000 62500000 K
62500000 63400000 e:
63400000 64000000 NH
64000000 64400000 ek
64400000 64700000 W
64700000 65500000 L
65500000 66200000 ek:
66200000 67000000 K
67000000 67600000 R
67600000 67900000 a:
67900000 68600000 D
68600000 69200000 aa:
69200000 69500000 H
69500000 70400000 T
70400000 70800000 eak
70800000 71600000 NG
71600000 72200000 NH
72200000 72500000 u
72500000 73300000 H
73300000 74000000 pm
74000000 75400000 sil
