0 2000000 sil
2000000 2500000 T
2500000 3400000 aa:
3400000 4000000 M
4000000 4400000 R
4400000 4700000 o:
4700000 6000000 J
6000000 6500000 eak
6500000 7100000 ?
7100000 8000000 S
8000000 8400000 ear:
8400000 8700000 W
8700000 9800000 PH
9800000 10100000 ek
10100000 10800000 W
10800000 11400000 PH
11400000 12400000 S
12400000 12900000 ia:
12900000 13400000 P
13400000 13800000 PH
13800000 14700000 S
14700000 15500000 aa:
15500000 16000000 J
16000000 17000000 K
17000000 17400000 R
17400000 17700000 u
17700000 18300000 M
18300000 18700000 H
18700000 19500000 u
19500000 20400000 NH
20400000 20700000 R
20700000 21200000 o:
21200000 21800000 B
21800000 22400000 a
22400000 22700000 H
22700000 23500000 NH
23500000 25000000 eak
25000000 25700000 ?
25700000 27600000 KH
27600000 28000000 N
28000000 28800000 u
28800000 30000000 M
30000000 30300000 J
30300000 31200000 o
31200000 31600000 L
31600000 32900000 TH
32900000 35200000 aa:
35200000 39600000 ?
39600000 40100000 aa:
40100000 41400000 C
41400000 42100000 i:
42100000 43100000 W
43100000 44000000 K
44000000 44700000 aa
44700000 45300000 M
45300000 45800000 R
45800000 46400000 o:
46400000 47100000 B
47100000 47900000 a
47900000 48200000 H
48200000 48800000 NH
48800000 50100000 eak
50100000 50600000 ?
50600000 51700000 T
51700000 52200000 R
52200000 52500000 oo
52500000 53100000 W
53100000 53800000 B
53800000 54700000 aa:
54700000 55000000 NH
55000000 56000000 C
56000000 56600000 aa
56600000 57000000 P
57000000 57400000 P
57400000 58400000 D
58400000 59300000 ear
59300000 59600000 M
59600000 60600000 P
60600000 61700000 i:
61700000 62000000 ?
62000000 62300000 ek
62300000 62600000 W
62600000 63900000 P
63900000 64300000 u
64300000 65100000 K
65100000 65800000 NH
65800000 66600000 eak
66600000 67500000 ?
67500000 69100000 K
69100000 70200000 aa:
70200000 70500000 L
70500000 71600000 P
71600000 72400000 i:
72400000 73500000 S
73500000 74500000 aa:
74500000 75000000 M
75000000 76000000 S
76000000 76300000 ek
76300000 77000000 P
77000000 77900000 CH
77900000 78300000 NH
78300000 78900000 aa
78900000 79500000 M
79500000 80100000 M
80100000 80500000 u
80500000 81800000 NH
81800000 83700000 pm
83700000 84500000 sil
