0 2100000 sil
2100000 3500000 S
3500000 3900000 L
3900000 5200000 aa:
5200000 5900000 P
5900000 7000000 R
7000000 7500000 ou:
7500000 8100000 M
8100000 9200000 S
9200000 9900000 aa
9900000 10600000 T
10600000 11200000 T
11200000 11700000 eak
11700000 12400000 NG
12400000 12900000 NH
12900000 14400000 i
14400000 18200000 H
18200000 18700000 K
18700000 19900000 ix:
19900000 20900000 B
20900000 21800000 aa:
21800000 22500000 NH
22500000 22800000 M
22800000 23600000 o:
23600000 23900000 ?
23900000 25000000 P
25000000 26200000 i:
26200000 26500000 ?
26500000 26800000 ek
26800000 27300000 NH
27300000 28400000 T
28400000 28800000 R
28800000 29600000 i:
29600000 29900000 J
29900000 30600000 T
30600000 30900000 u
30900000 31400000 M
31400000 33000000 P
33000000 34600000 ee:
34600000 35100000 K
35100000 39400000 H
39400000 41100000 ear
41100000 41500000 J
41500000 42600000 S
42600000 43700000 B
43700000 44700000 ea:
44700000 45700000 C
45700000 46300000 K
46300000 47100000 ix:
47100000 48000000 B
48000000 48900000 aa:
48900000 50200000 NH
50200000 51800000 P
51800000 52500000 i:
52500000 53500000 S
53500000 54300000 aa
54300000 54700000 T
54700000 55200000 K
55200000 55700000 R
55700000 56000000 a:
56000000 57200000 B
57200000 57500000 ek
57500000 59100000 J
59100000 66700000 pm
66700000 67200000 P
67200000 67900000 uor
67900000 68700000 K
68700000 69100000 W
69100000 70500000 ia
70500000 71100000 M
71100000 72200000 ia
72200000 72500000 NH
72500000 73800000 C
73800000 74600000 ou
74600000 74900000 H
74900000 75800000 R
75800000 76600000 ia
76600000 76900000 J
76900000 77700000 NH
77700000 78800000 ia
78800000 79200000 M
79200000 80000000 NH
80000000 80600000 ek
80600000 81000000 W
81000000 81700000 KH
81700000 82500000 NH
82500000 83000000 ou
83000000 83600000 NG
83600000 83900000 ?
83900000 84300000 aa
84300000 84600000 ?
84600000 85600000 NH
85600000 85900000 u
85900000 87000000 S
87000000 87300000 aa
87300000 88000000 N
88000000 88400000 N
88400000 89600000 aa:
89600000 90600000 W
90600000 91300000 aa:
91300000 92400000 S
92400000 92700000 i:
92700000 93100000 NH
93100000 94300000 T
94300000 95700000 ao
95700000 96800000 NH
96800000 98400000 pm
98400000 99300000 sil
