0 1900000 sil
1900000 2500000 K
2500000 3800000 aa:
3800000 4600000 B
4600000 5500000 R
5500000 6100000 ear
6100000 7000000 B
7000000 7700000 R
7700000 8400000 aa
8400000 8800000 H
8800000 9900000 K
9900000 10400000 R
10400000 11400000 iar
11400000 11800000 NG
11800000 12300000 M
12300000 12600000 aa:
12600000 13800000 S
13800000 14500000 i:
14500000 15000000 NH
15000000 15800000 K
15800000 16400000 aa
16400000 16700000 ?
16700000 17800000 S
17800000 18100000 e
18100000 19300000 K
19300000 20300000 aa
20300000 21900000 M
21900000 24900000 K
24900000 25300000 a
25300000 25700000 M
25700000 27000000 P
27000000 27400000 u
27400000 28400000 NG
28400000 29500000 K
29500000 30400000 ear
30400000 31000000 NH
31000000 31700000 L
31700000 32400000 ear
32400000 33200000 NG
33200000 33600000 J
33600000 34300000 aa:
34300000 34800000 NG
34800000 35700000 KH
35700000 36400000 L
36400000 37100000 aa
37100000 38500000 NG
38500000 42100000 H
42100000 43600000 ear
43600000 44100000 J
44100000 45000000 K
45000000 45700000 aa
45700000 46000000 ?
46000000 46900000 S
46900000 47200000 e
47200000 48400000 K
48400000 49700000 a:
49700000 50700000 PH
50700000 51500000 ia
51500000 51800000 ?
51800000 52800000 C
52800000 53700000 R
53700000 54700000 ek:
54700000 57100000 NH
57100000 58800000 B
58800000 59600000 aa:
59600000 60000000 NH
60000000 60900000 B
60900000 61400000 R
61400000 62600000 ee:
62600000 63600000 KH
63600000 64100000 L
64100000 65200000 aa:
65200000 65500000 J
65500000 66400000 P
66400000 67000000 i:
67000000 68100000 K
68100000 69300000 aa:
69300000 70200000 B
70200000 70800000 R
70800000 71500000 ear
71500000 72600000 B
72600000 73100000 R
73100000 73500000 aa
73500000 74000000 H
74000000 74900000 K
74900000 75300000 a
75300000 76100000 M
76100000 76400000 L
76400000 77200000 aa
77200000 77500000 NG
77500000 78500000 K
78500000 80500000 aa:
80500000 81500000 J
81500000 81800000 R
81800000 82100000 ix
82100000 82400000 S
82400000 82700000 aa
82700000 83100000 T
83100000 83400000 P
83400000 83700000 ia
83700000 90300000 H
90300000 90600000 aa
90600000 90900000 ?
90900000 91600000 NH
91600000 91900000 eak
91900000 92200000 ?
92200000 93200000 T
93200000 93600000 ek
93600000 94200000 W
94200000 95400000 C
95400000 96700000 ia
96700000 97300000 K
97300000 97600000 R
97600000 97900000 iar
97900000 98400000 NG
98400000 98700000 M
98700000 99800000 aa:
99800000 100800000 S
100800000 103800000 i:
103800000 109900000 NH
109900000 111700000 pm
111700000 112900000 sil
