0 1900000 sil
1900000 2400000 K
2400000 2700000 u
2700000 3100000 M
3100000 4300000 NH
4300000 5400000 u:
5400000 5900000 NH
5900000 6800000 i
6800000 8800000 H
8800000 9600000 B
9600000 10600000 aa:
10600000 11500000 NH
11500000 11800000 R
11800000 12100000 u
12100000 12900000 M
12900000 13400000 L
13400000 13700000 ix
13700000 14300000 K
14300000 14700000 KH
14700000 15100000 N
15100000 16100000 u
16100000 17300000 M
17300000 18400000 P
18400000 19600000 i:
19600000 20200000 R
20200000 20800000 u:
20800000 21200000 P
21200000 22100000 C
22100000 22400000 a
22400000 23200000 M
23200000 23700000 L
23700000 24400000 aa
24400000 25000000 ?
25000000 25500000 D
25500000 26200000 a:
26200000 27300000 S
27300000 27700000 R
27700000 28100000 a
28100000 28400000 H
28400000 29300000 S
29300000 29600000 ?
29600000 31200000 aa:
31200000 32400000 T
32400000 33600000 K
33600000 34700000 aa:
34700000 35000000 L
35000000 36200000 P
36200000 37400000 i:
37400000 38600000 S
38600000 39000000 aa
39000000 39300000 ?
39300000 40200000 T
40200000 40500000 aa
40500000 40800000 ?
40800000 41100000 W
41100000 42300000 ia:
42300000 42900000 T
42900000 43700000 T
43700000 44800000 i:
44800000 45500000 P
45500000 45800000 R
45800000 46100000 aa
46100000 47000000 M
47000000 47800000 B
47800000 48600000 e
48600000 54200000 J
54200000 54800000 D
54800000 55300000 ea:
55300000 55600000 L
55600000 56600000 T
56600000 57000000 R
57000000 57300000 oo
57300000 58000000 W
58000000 58900000 B
58900000 59700000 aa:
59700000 60200000 NH
60200000 61200000 K
61200000 62100000 e:
62100000 62700000 R
62700000 63600000 o:
63600000 63900000 ?
63900000 65100000 KH
65100000 66100000 ek:
66100000 66400000 N
66400000 67200000 NH
67200000 67700000 ek
67700000 68100000 W
68100000 69000000 KH
69000000 69600000 NH
69600000 70100000 ou
70100000 70700000 NG
70700000 71700000 PH
71700000 72600000 NH
72600000 74100000 oo
74100000 74500000 M
74500000 74800000 o
74800000 75200000 NH
75200000 76100000 T
76100000 76600000 R
76600000 77200000 e
77200000 77500000 J
77500000 78100000 M
78100000 78900000 NH
78900000 80000000 eak
80000000 80600000 ?
80600000 81400000 KH
81400000 82000000 NH
82000000 82400000 ou
82400000 83200000 NG
83200000 83600000 P
83600000 83900000 R
83900000 84200000 a:
84200000 85200000 T
85200000 85800000 ee
85800000 86100000 H
86100000 86900000 C
86900000 87200000 o:
87200000 88300000 P
88300000 89400000 ou
89400000 90300000 NH
90300000 92000000 pm
92000000 93000000 sil
