0 2200000 sil
2200000 3000000 W
3000000 4200000 ia
4200000 5500000 P
5500000 6000000 i
6000000 6500000 T
6500000 7300000 C
7300000 8000000 ia
8000000 8900000 NG
8900000 9900000 ia
9900000 10200000 J
10200000 11400000 S
11400000 12200000 R
12200000 13200000 uor
13200000 14400000 L
14400000 17200000 KH
17200000 17600000 NH
17600000 18200000 ou
18200000 19000000 NG
19000000 19900000 K
19900000 21100000 aa:
21100000 21700000 B
21700000 22700000 R
22700000 23400000 ear
23400000 24200000 B
24200000 24900000 R
24900000 25400000 aa
25400000 25700000 H
25700000 26500000 W
26500000 26900000 i
26900000 27400000 K
27400000 27900000 K
27900000 28500000 aa
28500000 28800000 ?
28800000 29600000 J
29600000 29900000 aa
29900000 30200000 ?
30200000 31100000 B
31100000 31700000 aa
31700000 32400000 T
32400000 33100000 B
33100000 33800000 a
33800000 34100000 NG
34100000 34600000 B
34600000 35300000 R
35300000 36200000 aa
36200000 36500000 ?
36500000 37600000 S
37600000 37900000 a
37900000 38400000 M
38400000 38700000 R
38700000 39300000 aa
39300000 39800000 P
39800000 40100000 ?
40100000 41300000 W
41300000 41900000 e
41900000 42400000 J
42400000 42800000 PH
42800000 43800000 S
43800000 44500000 e:
44500000 44900000 N
44900000 45300000 PH
45300000 46600000 S
46600000 48100000 e:
48100000 48500000 N
48500000 53700000 P
53700000 54100000 ou
54100000 54500000 NH
54500000 55700000 T
55700000 56800000 ea:
56800000 57100000 ?
57100000 57600000 e
57600000 58200000 J
58200000 58600000 L
58600000 58900000 ou
58900000 59500000 W
59500000 60400000 NH
60400000 61400000 i
61400000 62100000 H
62100000 62600000 KH
62600000 63200000 N
63200000 64000000 u
64000000 65000000 M
65000000 65700000 K
65700000 66000000 a
66000000 66500000 M
66500000 67600000 P
67600000 68000000 u
68000000 69100000 NG
69100000 70100000 C
70100000 71000000 ia:
71000000 71700000 P
71700000 72500000 K
72500000 73600000 eak
73600000 74300000 NG
74300000 75200000 C
75200000 75500000 ia
75500000 76400000 M
76400000 77100000 uor
77100000 77400000 J
77400000 78500000 K
78500000 79300000 aa
79300000 79600000 ?
79600000 80500000 T
80500000 80900000 eak
80900000 81400000 NG
81400000 81700000 ?
81700000 82900000 a
82900000 83200000 H
83200000 83700000 NH
83700000 84700000 i
84700000 85000000 H
85000000 87000000 pm
87000000 87200000 sil
