0 2200000 sil
2200000 2800000 L
2800000 3400000 ou:
3400000 3900000 K
3900000 4800000 K
4800000 5900000 u:
5900000 6300000 R
6300000 7200000 i
7200000 7800000 ?
7800000 10500000 oo
10500000 13500000 K
13500000 14600000 ix:
14600000 15700000 C
15700000 16100000 ia
16100000 16700000 NH
16700000 17400000 eak
17400000 17700000 ?
17700000 18200000 NH
18200000 18600000 i
18600000 19700000 J
19700000 20600000 ia
20600000 21100000 J
21100000 21700000 J
21700000 22300000 aa:
22300000 22800000 NG
22800000 24200000 C
24200000 24800000 eak
24800000 25100000 ?
25100000 26000000 L
26000000 26800000 eak
26800000 27400000 ?
27400000 28300000 P
28300000 29600000 i:
29600000 30000000 R
30000000 31100000 iar
31100000 31400000 NG
31400000 32100000 R
32100000 33600000 aa:
33600000 33900000 W
33900000 34900000 R
34900000 35600000 ia:
35600000 36400000 P
36400000 37300000 R
37300000 38200000 o:
38200000 38800000 J
38800000 39300000 R
39300000 40000000 ia:
40000000 40900000 P
40900000 41500000 P
41500000 43100000 ia:
43100000 47000000 NH
47000000 47900000 R
47900000 48500000 o:
48500000 49200000 B
49200000 49700000 a
49700000 50000000 H
50000000 51000000 P
51000000 51500000 uor
51500000 52000000 K
52000000 53100000 K
53100000 60900000 e:
60900000 61700000 W
61700000 62800000 ia
62800000 64100000 H
64100000 65000000 aa
65000000 65400000 ?
65400000 66400000 B
66400000 66900000 e
66900000 67800000 J
67800000 68200000 D
68200000 69400000 oo
69400000 70100000 C
70100000 71100000 C
71100000 72700000 ia
72700000 74000000 KH
74000000 74900000 L
74900000 75800000 eak
75800000 77000000 NG
77000000 77300000 M
77300000 78500000 uor
78500000 82500000 J
82500000 83400000 D
83400000 84000000 ea:
84000000 84400000 L
84400000 85100000 ?
85100000 86700000 aa:
86700000 87000000 C
87000000 87700000 R
87700000 88000000 eak
88000000 88300000 ?
88300000 89400000 S
89400000 90500000 aa:
90500000 91700000 T
91700000 92000000 u
92000000 93000000 K
93000000 93700000 D
93700000 94700000 a:
94700000 95100000 P
95100000 95500000 P
95500000 96100000 R
96100000 96400000 a:
96400000 97000000 H
97000000 97800000 ea:
97800000 98100000 L
98100000 99400000 C
99400000 100100000 ia
100100000 100800000 P
100800000 101100000 R
101100000 101400000 aa
101400000 101900000 M
101900000 102600000 B
102600000 103300000 e
103300000 103700000 J
103700000 104100000 R
104100000 104500000 o:
104500000 105100000 J
105100000 106400000 P
106400000 108000000 ia:
108000000 108500000 NH
108500000 109800000 pm
109800000 111100000 sil
