0 2200000 sil
2200000 2500000 ?
2500000 3000000 a
3000000 3800000 H
3800000 4500000 L
4500000 5500000 ou:
5500000 6100000 K
6100000 6600000 L
6600000 7200000 ou:
7200000 7700000 K
7700000 8700000 S
8700000 9100000 R
9100000 9500000 e
9500000 9800000 J
9800000 10700000 T
10700000 11300000 eak
11300000 11800000 NG
11800000 12200000 ?
12200000 13400000 a
13400000 20900000 H
20900000 22000000 J
22000000 23300000 ek:
23300000 23600000 NG
23600000 24100000 NH
24100000 24600000 ix
24600000 25400000 NG
25400000 25900000 T
25900000 26300000 ek
26300000 26700000 W
26700000 27300000 D
27300000 28000000 a
28000000 28300000 L
28300000 29400000 T
29400000 30100000 i:
30100000 31000000 K
31000000 31500000 R
31500000 31800000 ou
31800000 32500000 NG
32500000 33200000 PH
33200000 33700000 NH
33700000 34000000 u
34000000 34800000 M
34800000 36700000 P
36700000 37100000 e:
37100000 37800000 N
37800000 38600000 NH
38600000 39400000 ek
39400000 39700000 W
39700000 40700000 C
40700000 41300000 R
41300000 42000000 a:
42000000 42300000 ?
42300000 43200000 TH
43200000 43600000 W
43600000 44600000 ia
44600000 45600000 L
45600000 46200000 e:
46200000 46800000 K
46800000 47200000 P
47200000 47700000 R
47700000 48000000 aa
48000000 48500000 M
48500000 49900000 P
49900000 51800000 i:
51800000 62000000 pm
62000000 62400000 P
62400000 62900000 R
62900000 63400000 a:
63400000 64600000 S
64600000 65100000 ek
65100000 65700000 NH
65700000 66700000 B
66700000 67200000 ear
67200000 67800000 NH
67800000 68700000 eak
68700000 69000000 ?
69000000 69900000 T
69900000 70400000 R
70400000 70700000 oo
70700000 71400000 W
71400000 72200000 B
72200000 73100000 aa:
73100000 73400000 NH
73400000 74500000 T
74500000 75700000 a:
75700000 76400000 PH
76400000 77200000 C
77200000 78100000 ia:
78100000 78600000 P
78600000 79600000 T
79600000 80200000 ek
80200000 80500000 W
80500000 81900000 C
81900000 83000000 ek:
83000000 83300000 NG
83300000 84300000 H
84300000 84900000 a
84900000 85300000 H
85300000 85600000 H
85600000 87900000 ear
87900000 88400000 R
88400000 89300000 ia:
89300000 90000000 T
90000000 90300000 PH
90300000 91600000 S
91600000 92400000 e:
92400000 92700000 N
92700000 93800000 T
93800000 94700000 ear:
94700000 100400000 T
100400000 101600000 S
101600000 102600000 oo
102600000 103100000 M
103100000 104000000 P
104000000 104600000 i
104600000 105200000 NH
105200000 106000000 i
106000000 106400000 T
106400000 107300000 M
107300000 108300000 ek:
108300000 108800000 L
108800000 109300000 ?
109300000 109600000 e:
109600000 110800000 K
110800000 111500000 R
111500000 111800000 o
111800000 112500000 NG
112500000 113400000 T
113400000 114100000 u:
114100000 114500000 R
114500000 116000000 T
116000000 117200000 uor
117200000 123100000 H
123100000 123900000 NH
123900000 124500000 ix
124500000 125400000 NG
125400000 125900000 B
125900000 126200000 a
126200000 126500000 NH
126500000 126900000 T
126900000 128600000 PH
128600000 130400000 T
130400000 130700000 ix
130700000 131800000 L
131800000 133000000 T
133000000 133700000 ek
133700000 134000000 W
134000000 135200000 C
135200000 135600000 R
135600000 136300000 a:
136300000 136600000 ?
136600000 137600000 TH
137600000 137900000 W
137900000 139300000 ia
139300000 139600000 R
139600000 140100000 o:
140100000 140800000 B
140800000 141500000 a
141500000 141900000 H
141900000 142500000 NH
142500000 143500000 eak
143500000 144400000 ?
144400000 145600000 S
145600000 145900000 a
145900000 146600000 M
146600000 147000000 R
147000000 147700000 aa
147700000 148300000 P
148300000 149000000 T
149000000 149700000 R
149700000 150000000 uor
150000000 150600000 T
150600000 151100000 P
151100000 151800000 i
151800000 152400000 NH
152400000 153100000 i
153100000 153800000 T
153800000 155100000 pm
155100000 155700000 sil
