0 2200000 sil
2200000 2800000 C
2800000 3200000 o
3200000 4000000 NH
4000000 4800000 C
4800000 5200000 a
5200000 6000000 M
6000000 6700000 L
6700000 7900000 ea:
7900000 8800000 C
8800000 9400000 B
9400000 10300000 aa:
10300000 10700000 NH
10700000 11400000 D
11400000 12400000 ear
12400000 13600000 M
13600000 15200000 o:
15200000 15800000 ?
15800000 16700000 H
16700000 19100000 ear
19100000 19600000 J
19600000 20600000 B
20600000 21500000 aa:
21500000 21800000 NH
21800000 22900000 C
22900000 23500000 aa
23500000 23900000 P
23900000 24300000 P
24300000 25200000 D
25200000 26100000 ear
26100000 26500000 M
26500000 27200000 NH
27200000 27600000 i
27600000 28500000 J
28500000 29500000 ia
29500000 29900000 J
29900000 30900000 C
30900000 31300000 ia
31300000 31900000 M
31900000 32400000 uor
32400000 33100000 J
33100000 33500000 KH
33500000 33900000 N
33900000 34700000 u
34700000 35600000 M
35600000 37100000 C
37100000 37800000 ia
37800000 38700000 PH
38700000 39200000 ia
39200000 40400000 S
40400000 41300000 aa:
41300000 42300000 C
42300000 42600000 o:
42600000 43900000 P
43900000 44800000 ou
44800000 45400000 NH
45400000 51600000 pm
51600000 52200000 K
52200000 52900000 ia:
52900000 53500000 T
53500000 54300000 B
54300000 55100000 aa:
55100000 55400000 NH
55400000 55700000 NH
55700000 56100000 i
56100000 57000000 J
57000000 57700000 ia
57700000 58200000 J
58200000 59400000 TH
59400000 62600000 aa:
62600000 66500000 P
66500000 67000000 e:
67000000 67500000 L
67500000 68500000 K
68500000 69300000 ia:
69300000 69700000 T
69700000 70400000 NH
70400000 71100000 ek
71100000 71400000 W
71400000 72200000 P
72200000 72600000 R
72600000 72900000 a:
72900000 73800000 T
73800000 74700000 ee
74700000 75000000 H
75000000 75700000 C
75700000 76000000 o:
76000000 77300000 P
77300000 78300000 ou
78300000 82800000 NH
82800000 83300000 M
83300000 84200000 ia
84200000 84700000 NH
84700000 85500000 B
85500000 86300000 ou
86300000 86700000 R
86700000 87500000 a
87500000 87800000 H
87800000 88300000 M
88300000 89000000 NH
89000000 89900000 eak
89900000 90200000 ?
90200000 91100000 C
91100000 91400000 ek
91400000 92100000 T
92100000 92500000 L
92500000 92800000 ?
92800000 94200000 a:
94200000 95100000 C
95100000 95400000 a
95400000 95700000 M
95700000 96900000 P
96900000 97500000 uor
97500000 98200000 H
98200000 98900000 K
98900000 99800000 ia:
99800000 100100000 T
100100000 100900000 NH
100900000 101800000 aa
101800000 108600000 H
108600000 109000000 D
109000000 109400000 oo
109400000 110300000 C
110300000 110800000 CH
110800000 111500000 NH
111500000 112300000 e
112300000 115200000 H
115200000 115800000 K
115800000 116700000 ia:
116700000 117300000 T
117300000 118000000 C
118000000 118800000 a
118800000 119500000 NG
119500000 120100000 TH
120100000 120500000 W
120500000 122100000 ek:
122100000 122400000 ?
122400000 123400000 W
123400000 124000000 e
124000000 124700000 J
124700000 125600000 M
125600000 126500000 uor
126500000 126900000 J
126900000 127800000 S
127800000 128100000 a
128100000 128600000 M
128600000 129200000 R
129200000 129800000 aa
129800000 130500000 P
130500000 131300000 C
131300000 131800000 o
131800000 132800000 NH
132800000 133400000 R
133400000 133800000 uor
133800000 134200000 M
134200000 135400000 C
135400000 135900000 ia
135900000 136300000 T
136300000 137000000 C
137000000 137300000 o:
137300000 138500000 P
138500000 139500000 ou
139500000 140600000 NH
140600000 146400000 pm
146400000 147100000 H
147100000 148500000 ear
148500000 149200000 J
149200000 149600000 KH
149600000 150000000 N
150000000 150900000 u
150900000 152000000 M
152000000 152700000 K
152700000 153200000 a:
153200000 154100000 T
154100000 154700000 R
154700000 155000000 oo
155000000 155600000 W
155600000 156400000 B
156400000 157300000 aa:
157300000 157900000 NH
157900000 158800000 K
158800000 159700000 ia:
159700000 160100000 T
160100000 160900000 NH
160900000 161800000 ia:
161800000 162100000 M
162100000 163200000 T
163200000 164000000 ek
164000000 164300000 W
164300000 165000000 T
165000000 165900000 i:
165900000 166800000 NH
166800000 167100000 u
167100000 168100000 H
168100000 168500000 pm
168500000 170400000 sil
