0 1300000 sil
1300000 2500000 ?
2500000 3800000 a:
3800000 4800000 K
4800000 5100000 u
5100000 6100000 NH
6100000 6800000 KH
6800000 7200000 L
7200000 8000000 aa
8000000 9100000 NG
9100000 9400000 NH
9400000 10400000 aa
10400000 11500000 H
11500000 14700000 pm
14700000 15500000 T
15500000 16400000 eak
16400000 17400000 NG
17400000 17800000 L
17800000 18600000 ou:
18600000 19000000 K
19000000 20000000 S
20000000 20600000 e
20600000 21100000 J
21100000 22100000 H
22100000 23500000 aa:
23500000 23800000 NH
23800000 24400000 ix
24400000 24900000 NG
24900000 25400000 KH
25400000 26000000 N
26000000 26600000 u
26600000 27200000 M
27200000 27800000 PH
27800000 29000000 T
29000000 29300000 ix
29300000 31200000 L
31200000 32900000 P
32900000 33300000 i
33300000 34200000 T
34200000 35000000 C
35000000 36200000 ia
36200000 36500000 R
36500000 38000000 i:
38000000 38300000 K
38300000 38600000 R
38600000 39500000 ia
39500000 40000000 J
40000000 40400000 D
40400000 41100000 ea:
41100000 41500000 L
41500000 42300000 B
42300000 43200000 aa:
43200000 44000000 NH
44000000 44300000 M
44300000 45200000 o:
45200000 45600000 ?
45600000 45900000 B
45900000 46600000 R
46600000 46900000 a:
46900000 48100000 C
48100000 48400000 u
48400000 48800000 M
48800000 49900000 NH
49900000 50500000 ek
50500000 50800000 W
50800000 51800000 T
51800000 52400000 i:
52400000 53400000 K
53400000 54000000 R
54000000 54400000 ou
54400000 55200000 NG
55200000 55700000 L
55700000 56500000 ou
56500000 57400000 NG
57400000 58600000 C
58600000 59300000 ia
59300000 60100000 M
60100000 60900000 uor
60900000 61300000 J
61300000 61900000 D
61900000 62500000 aa
62500000 63100000 J
63100000 64300000 K
64300000 65100000 u:
65100000 65900000 S
65900000 66300000 a
66300000 66900000 M
66900000 67800000 KH
67800000 68400000 aa
68400000 68800000 NH
68800000 69700000 S
69700000 70000000 a
70000000 70500000 M
70500000 71600000 KH
71600000 72300000 aa
72300000 73200000 NH
73200000 73500000 R
73500000 73900000 o:
73900000 74600000 B
74600000 74900000 a
74900000 75200000 H
75200000 76500000 P
76500000 77300000 uor
77300000 77900000 K
77900000 78400000 J
78400000 80300000 ek:
80300000 80600000 NG
80600000 81900000 pm
81900000 83500000 sil
